0
0.340776684
0.335776684
0.340776684
0.335776684
0.335776684
0.335776684
0.315776684
0.315776684
0.310776684
0.350776684
0.375776684
0.385776684
0.430776684
0.450776684
0.440776684
0.440776684
0.435776684
0.425776684
0.420776684
0.420776684
0.415776684
0.410776684
0.400776684
0.385776684
0.395776684
0.390776684
0.390776684
0.390776684
0.380776684
0.370776684
0.390776684
0.390776684
0.400776684
0.390776684
0.430776684
0.455776684
0.480776684
0.475776684
0.460776684
0.475776684
0.395776684
0.370776684
0.365776684
0.345776684
0.370776684
0.370776684
0.360776684
0.330776684
0.675776684
1.410776684
1.630776684
1.445776684
0.300776684
0.310776684
0.315776684
0.320776684
0.305776684
0.320776684
0.310776684
0.310776684
0.300776684
0.310776684
0.320776684
0.325776684
0.335776684
0.320776684
0.325776684
0.315776684
0.300776684
0.290776684
0.280776684
0.275776684
0.260776684
0.265776684
0.340776684
0.350776684
0.395776684
0.410776684
0.410776684
0.415776684
0.410776684
0.410776684
0.425776684
0.425776684
0.415776684
0.400776684
0.390776684
0.390776684
0.385776684
0.395776684
0.385776684
0.385776684
0.375776684
0.385776684
0.385776684
0.385776684
0.385776684
0.385776684
0.400776684
0.420776684
0.460776684
0.490776684
0.500776684
0.480776684
0.495776684
0.495776684
0.430776684
0.380776684
0.365776684
0.355776684
0.355776684
0.355776684
0.300776684
0.305776684
1.595776684
1.670776684
0.760776684
0.320776684
0.325776684
0.325776684
0.315776684
0.315776684
0.310776684
0.315776684
0.310776684
0.325776684
0.335776684
0.335776684
0.315776684
0.325776684
0.330776684
0.330776684
0.340776684
0.335776684
0.310776684
0.315776684
0.305776684
0.330776684
0.395776684
0.400776684
0.430776684
0.435776684
0.435776684
0.435776684
0.430776684
0.440776684
0.425776684
0.415776684
0.405776684
0.400776684
0.395776684
0.395776684
0.385776684
0.385776684
0.385776684
0.385776684
0.395776684
0.395776684
0.380776684
0.380776684
0.390776684
0.430776684
0.460776684
0.460776684
0.490776684
0.475776684
0.470776684
0.495776684
0.455776684
0.390776684
0.355776684
0.345776684
0.355776684
0.340776684
0.325776684
0.255776684
0.460776684
1.100776684
1.590776684
1.500776684
0.340776684
0.345776684
0.340776684
0.340776684
0.335776684
0.340776684
0.335776684
0.330776684
0.350776684
0.350776684
0.345776684
0.345776684
0.350776684
0.340776684
0.340776684
0.340776684
0.350776684
0.350776684
0.350776684
0.350776684
0.365776684
0.400776684
0.430776684
0.430776684
0.445776684
0.435776684
0.440776684
0.440776684
0.425776684
0.415776684
0.415776684
0.415776684
0.400776684
0.400776684
0.385776684
0.385776684
0.385776684
0.395776684
0.375776684
0.370776684
0.375776684
0.370776684
0.385776684
0.385776684
0.430776684
0.440776684
0.485776684
0.485776684
0.480776684
0.460776684
0.470776684
0.450776684
0.385776684
0.380776684
0.355776684
0.350776684
0.355776684
0.365776684
0.345776684
0.285776684
1.190776684
1.535776684
1.250776684
0.315776684
0.325776684
0.320776684
0.330776684
0.330776684
0.330776684
0.320776684
0.310776684
0.310776684
0.310776684
0.315776684
0.315776684
0.315776684
0.320776684
0.315776684
0.315776684
0.315776684
0.290776684
0.275776684
0.285776684
0.285776684
0.305776684
0.345776684
0.405776684
0.405776684
0.405776684
0.415776684
0.415776684
0.425776684
0.430776684
0.405776684
0.395776684
0.395776684
0.395776684
0.385776684
0.395776684
0.380776684
0.395776684
0.390776684
0.395776684
0.395776684
0.380776684
0.385776684
0.400776684
0.435776684
0.460776684
0.490776684
0.490776684
0.485776684
0.480776684
0.515776684
0.480776684
0.425776684
0.370776684
0.370776684
0.365776684
0.365776684
0.360776684
0.350776684
0.300776684
0.745776684
1.590776684
1.590776684
0.315776684
0.315776684
0.325776684
0.315776684
0.310776684
0.310776684
0.315776684
0.310776684
0.315776684
0.315776684
0.300776684
0.310776684
0.310776684
0.310776684
0.295776684
0.300776684
0.305776684
0.305776684
0.290776684
0.270776684
0.265776684
0.270776684
0.330776684
0.370776684
0.410776684
0.410776684
0.415776684
0.420776684
0.425776684
0.425776684
0.420776684
0.410776684
0.400776684
0.400776684
0.385776684
0.385776684
0.385776684
0.385776684
0.375776684
0.375776684
0.390776684
0.390776684
0.385776684
0.375776684
0.380776684
0.380776684
0.400776684
0.440776684
0.470776684
0.480776684
0.495776684
0.480776684
0.495776684
0.495776684
0.395776684
0.375776684
0.375776684
0.375776684
0.360776684
0.355776684
0.350776684
0.325776684
0.760776684
1.505776684
1.640776684
1.140776684
0.335776684
0.330776684
0.325776684
0.325776684
0.310776684
0.315776684
0.305776684
0.305776684
0.320776684
0.325776684
0.335776684
0.335776684
0.330776684
0.335776684
0.345776684
0.350776684
0.360776684
0.350776684
0.345776684
0.345776684
0.350776684
0.365776684
0.385776684
0.415776684
0.455776684
0.465776684
0.460776684
0.460776684
0.455776684
0.455776684
0.465776684
0.465776684
0.470776684
0.475776684
0.505776684
0.505776684
0.535776684
0.535776684
0.500776684
0.490776684
0.430776684
0.395776684
0.375776684
0.380776684
0.390776684
0.400776684
0.390776684
0.360776684
0.595776684
1.245776684
1.605776684
1.465776684
0.360776684
0.345776684
0.335776684
0.335776684
0.330776684
0.335776684
0.330776684
0.330776684
0.345776684
0.335776684
0.345776684
0.345776684
0.350776684
0.350776684
0.350776684
0.350776684
0.350776684
0.350776684
0.345776684
0.340776684
0.330776684
0.350776684
0.360776684
0.375776684
0.395776684
0.425776684
0.425776684
0.425776684
0.425776684
0.430776684
0.425776684
0.425776684
0.415776684
0.395776684
0.385776684
0.385776684
0.380776684
0.385776684
0.380776684
0.380776684
0.380776684
0.375776684
0.365776684
0.365776684
0.385776684
0.385776684
0.360776684
0.360776684
0.355776684
0.365776684
0.380776684
0.380776684
0.370776684
0.365776684
0.370776684
0.370776684
0.370776684
0.385776684
0.380776684
0.380776684
0.415776684
0.425776684
0.470776684
0.470776684
0.475776684
0.475776684
0.465776684
0.465776684
0.425776684
0.385776684
0.375776684
0.375776684
0.360776684
0.350776684
0.335776684
0.290776684
0.960776684
1.585776684
1.625776684
0.965776684
0.305776684
0.330776684
0.325776684
0.320776684
0.310776684
0.315776684
0.315776684
0.310776684
0.315776684
0.315776684
0.325776684
0.325776684
0.310776684
0.325776684
0.335776684
0.335776684
0.335776684
0.335776684
0.295776684
0.290776684
0.265776684
0.255776684
0.275776684
0.285776684
0.335776684
0.375776684
0.420776684
0.420776684
0.425776684
0.415776684
0.420776684
0.420776684
0.415776684
0.410776684
0.405776684
0.405776684
0.390776684
0.390776684
0.395776684
0.395776684
0.395776684
0.390776684
0.380776684
0.380776684
0.380776684
0.385776684
0.385776684
0.385776684
0.430776684
0.450776684
0.480776684
0.480776684
0.475776684
0.470776684
0.480776684
0.440776684
0.375776684
0.375776684
0.365776684
0.365776684
0.365776684
0.345776684
0.300776684
0.315776684
1.535776684
1.615776684
0.910776684
0.310776684
0.330776684
0.320776684
0.320776684
0.325776684
0.340776684
0.330776684
0.325776684
0.325776684
0.325776684
0.315776684
0.320776684
0.320776684
0.325776684
0.320776684
0.320776684
0.320776684
0.315776684
0.310776684
0.305776684
0.305776684
0.325776684
0.355776684
0.400776684
0.400776684
0.420776684
0.435776684
0.430776684
0.430776684
0.420776684
0.420776684
0.410776684
0.410776684
0.405776684
0.395776684
0.385776684
0.385776684
0.390776684
0.375776684
0.370776684
0.370776684
0.380776684
0.390776684
0.390776684
0.390776684
0.395776684
0.395776684
0.455776684
0.465776684
0.490776684
0.490776684
0.470776684
0.510776684
0.485776684
0.435776684
0.370776684
0.365776684
0.365776684
0.365776684
0.365776684
0.355776684
0.630776684
1.385776684
1.625776684
1.170776684
0.345776684
0.330776684
0.325776684
0.325776684
0.315776684
0.315776684
0.320776684
0.320776684
0.315776684
0.325776684
0.320776684
0.320776684
0.330776684
0.320776684
0.315776684
0.315776684
0.315776684
0.310776684
0.310776684
0.310776684
0.335776684
0.360776684
0.370776684
0.395776684
0.420776684
0.430776684
0.410776684
0.410776684
0.415776684
0.410776684
0.410776684
0.410776684
0.390776684
0.390776684
0.380776684
0.380776684
0.375776684
0.385776684
0.375776684
0.375776684
0.375776684
0.395776684
0.390776684
0.380776684
0.390776684
0.440776684
0.470776684
0.485776684
0.505776684
0.475776684
0.510776684
0.510776684
0.410776684
0.385776684
0.380776684
0.380776684
0.360776684
0.365776684
0.335776684
0.255776684
1.335776684
1.545776684
1.130776684
0.325776684
0.335776684
0.345776684
0.345776684
0.345776684
0.335776684
0.330776684
0.350776684
0.350776684
0.345776684
0.335776684
0.335776684
0.345776684
0.355776684
0.330776684
0.350776684
0.350776684
0.345776684
0.325776684
0.335776684
0.335776684
0.370776684
0.400776684
0.425776684
0.435776684
0.445776684
0.450776684
0.435776684
0.425776684
0.415776684
0.415776684
0.415776684
0.415776684
0.390776684
0.390776684
0.380776684
0.380776684
0.385776684
0.385776684
0.390776684
0.385776684
0.395776684
0.400776684
0.430776684
0.430776684
0.470776684
0.485776684
0.480776684
0.465776684
0.475776684
0.445776684
0.380776684
0.380776684
0.365776684
0.345776684
0.345776684
0.345776684
0.285776684
0.430776684
1.525776684
1.525776684
0.435776684
0.320776684
0.315776684
0.320776684
0.330776684
0.325776684
0.305776684
0.305776684
0.300776684
0.315776684
0.310776684
0.310776684
0.305776684
0.305776684
0.325776684
0.325776684
0.315776684
0.305776684
0.275776684
0.275776684
0.270776684
0.270776684
0.320776684
0.330776684
0.370776684
0.395776684
0.405776684
0.405776684
0.415776684
0.410776684
0.410776684
0.410776684
0.400776684
0.395776684
0.395776684
0.395776684
0.390776684
0.375776684
0.375776684
0.375776684
0.380776684
0.385776684
0.370776684
0.365776684
0.375776684
0.380776684
0.390776684
0.390776684
0.425776684
0.450776684
0.480776684
0.480776684
0.470776684
0.475776684
0.495776684
0.495776684
0.405776684
0.370776684
0.385776684
0.385776684
0.370776684
0.365776684
0.355776684
0.345776684
0.525776684
1.205776684
1.625776684
1.525776684
0.330776684
0.335776684
0.320776684
0.320776684
0.320776684
0.330776684
0.335776684
0.335776684
0.330776684
0.330776684
0.335776684
0.335776684
0.335776684
0.335776684
0.335776684
0.335776684
0.340776684
0.330776684
0.320776684
0.315776684
0.315776684
0.330776684
0.390776684
0.395776684
0.420776684
0.430776684
0.440776684
0.440776684
0.425776684
0.435776684
0.425776684
0.415776684
0.415776684
0.400776684
0.405776684
0.405776684
0.390776684
0.385776684
0.375776684
0.375776684
0.385776684
0.385776684
0.370776684
0.370776684
0.380776684
0.385776684
0.390776684
0.390776684
0.430776684
0.445776684
0.475776684
0.475776684
0.480776684
0.475776684
0.500776684
0.500776684
0.395776684
0.370776684
0.365776684
0.365776684
0.355776684
0.355776684
0.340776684
0.255776684
0.310776684
0.745776684
1.575776684
1.575776684
0.315776684
0.325776684
0.325776684
0.325776684
0.330776684
0.330776684
0.340776684
0.340776684
0.335776684
0.335776684
0.345776684
0.345776684
0.340776684
0.340776684
0.360776684
0.360776684
0.335776684
0.345776684
0.335776684
0.330776684
0.330776684
0.340776684
0.375776684
0.385776684
0.425776684
0.435776684
0.435776684
0.435776684
0.450776684
0.440776684
0.420776684
0.420776684
0.425776684
0.415776684
0.410776684
0.410776684
0.395776684
0.380776684
0.385776684
0.385776684
0.385776684
0.385776684
0.385776684
0.385776684
0.380776684
0.385776684
0.415776684
0.435776684
0.455776684
0.490776684
0.470776684
0.470776684
0.475776684
0.490776684
0.430776684
0.425776684
0.365776684
0.355776684
0.365776684
0.365776684
0.360776684
0.335776684
0.450776684
1.065776684
1.500776684
1.405776684
0.295776684
0.305776684
0.310776684
0.320776684
0.315776684
0.310776684
0.325776684
0.330776684
0.310776684
0.310776684
0.310776684
0.310776684
0.320776684
0.320776684
0.320776684
0.320776684
0.330776684
0.330776684
0.320776684
0.290776684
0.290776684
0.290776684
0.340776684
0.350776684
0.415776684
0.415776684
0.420776684
0.410776684
0.420776684
0.420776684
0.415776684
0.410776684
0.425776684
0.425776684
0.400776684
0.380776684
0.380776684
0.380776684
0.385776684
0.375776684
0.370776684
0.370776684
0.385776684
0.380776684
0.385776684
0.385776684
0.390776684
0.405776684
0.455776684
0.455776684
0.490776684
0.475776684
0.460776684
0.465776684
0.425776684
0.385776684
0.365776684
0.365776684
0.370776684
0.365776684
0.355776684
0.355776684
0.275776684
0.700776684
1.575776684
1.575776684
0.335776684
0.320776684
0.340776684
0.340776684
0.330776684
0.325776684
0.315776684
0.315776684
0.310776684
0.320776684
0.335776684
0.335776684
0.315776684
0.315776684
0.310776684
0.315776684
0.325776684
0.325776684
0.310776684
0.310776684
0.265776684
0.275776684
0.325776684
0.340776684
0.370776684
0.395776684
0.415776684
0.415776684
0.410776684
0.410776684
0.405776684
0.405776684
0.410776684
0.390776684
0.390776684
0.390776684
0.385776684
0.400776684
0.385776684
0.385776684
0.375776684
0.375776684
0.375776684
0.375776684
0.385776684
0.390776684
0.390776684
0.415776684
0.445776684
0.480776684
0.500776684
0.500776684
0.480776684
0.495776684
0.425776684
0.405776684
0.385776684
0.385776684
0.370776684
0.370776684
0.365776684
0.340776684
0.415776684
0.980776684
1.625776684
1.625776684
0.340776684
0.340776684
0.325776684
0.330776684
0.335776684
0.335776684
0.330776684
0.320776684
0.320776684
0.320776684
0.325776684
0.320776684
0.325776684
0.325776684
0.310776684
0.320776684
0.320776684
0.320776684
0.315776684
0.310776684
0.320776684
0.335776684
0.395776684
0.415776684
0.420776684
0.420776684
0.415776684
0.425776684
0.420776684
0.420776684
0.410776684
0.400776684
0.405776684
0.405776684
0.400776684
0.390776684
0.375776684
0.375776684
0.380776684
0.385776684
0.390776684
0.390776684
0.380776684
0.385776684
0.415776684
0.450776684
0.460776684
0.480776684
0.495776684
0.495776684
0.465776684
0.500776684
0.490776684
0.430776684
0.360776684
0.370776684
0.345776684
0.350776684
0.350776684
0.335776684
0.655776684
1.365776684
1.515776684
1.010776684
0.330776684
0.330776684
0.340776684
0.325776684
0.315776684
0.315776684
0.325776684
0.340776684
0.345776684
0.345776684
0.340776684
0.335776684
0.355776684
0.355776684
0.365776684
0.360776684
0.345776684
0.335776684
0.350776684
0.340776684
0.345776684
0.350776684
0.375776684
0.405776684
0.435776684
0.435776684
0.445776684
0.450776684
0.430776684
0.420776684
0.410776684
0.410776684
0.400776684
0.400776684
0.400776684
0.395776684
0.390776684
0.390776684
0.385776684
0.375776684
0.385776684
0.385776684
0.380776684
0.390776684
0.395776684
0.430776684
0.440776684
0.465776684
0.475776684
0.475776684
0.480776684
0.485776684
0.415776684
0.370776684
0.365776684
0.355776684
0.355776684
0.355776684
0.310776684
0.285776684
1.170776684
1.625776684
1.670776684
1.115776684
0.335776684
0.335776684
0.315776684
0.330776684
0.330776684
0.330776684
0.320776684
0.325776684
0.315776684
0.315776684
0.325776684
0.325776684
0.320776684
0.320776684
0.330776684
0.340776684
0.325776684
0.300776684
0.270776684
0.265776684
0.300776684
0.305776684
0.385776684
0.420776684
0.420776684
0.420776684
0.420776684
0.415776684
0.420776684
0.420776684
0.405776684
0.400776684
0.395776684
0.385776684
0.385776684
0.390776684
0.385776684
0.375776684
0.375776684
0.385776684
0.380776684
0.380776684
0.380776684
0.385776684
0.445776684
0.445776684
0.480776684
0.495776684
0.475776684
0.475776684
0.490776684
0.475776684
0.385776684
0.365776684
0.375776684
0.375776684
0.365776684
0.365776684
0.330776684
0.360776684
1.615776684
1.615776684
0.665776684
0.325776684
0.335776684
0.335776684
0.330776684
0.340776684
0.340776684
0.340776684
0.325776684
0.335776684
0.325776684
0.325776684
0.310776684
0.310776684
0.320776684
0.320776684
0.320776684
0.300776684
0.285776684
0.285776684
0.280776684
0.295776684
0.350776684
0.350776684
0.385776684
0.405776684
0.405776684
0.405776684
0.420776684
0.410776684
0.420776684
0.420776684
0.400776684
0.395776684
0.390776684
0.390776684
0.385776684
0.375776684
0.380776684
0.380776684
0.385776684
0.375776684
0.400776684
0.400776684
0.380776684
0.390776684
0.400776684
0.440776684
0.465776684
0.495776684
0.495776684
0.480776684
0.480776684
0.490776684
0.440776684
0.410776684
0.365776684
0.360776684
0.360776684
0.360776684
0.355776684
0.345776684
0.230776684
0.600776684
1.670776684
1.670776684
0.425776684
0.320776684
0.350776684
0.335776684
0.315776684
0.310776684
0.310776684
0.325776684
0.335776684
0.335776684
0.340776684
0.330776684
0.330776684
0.330776684
0.335776684
0.350776684
0.345776684
0.345776684
0.335776684
0.325776684
0.320776684
0.320776684
0.325776684
0.335776684
0.380776684
0.385776684
0.410776684
0.435776684
0.435776684
0.435776684
0.435776684
0.425776684
0.435776684
0.435776684
0.425776684
0.405776684
0.395776684
0.395776684
0.380776684
0.375776684
0.395776684
0.395776684
0.375776684
0.370776684
0.370776684
0.370776684
0.370776684
0.385776684
0.390776684
0.400776684
0.430776684
0.445776684
0.480776684
0.480776684
0.480776684
0.465776684
0.495776684
0.495776684
0.400776684
0.365776684
0.375776684
0.365776684
0.365776684
0.360776684
0.345776684
0.335776684
0.510776684
1.130776684
1.580776684
1.520776684
0.330776684
0.350776684
0.345776684
0.345776684
0.335776684
0.330776684
0.335776684
0.340776684
0.345776684
0.330776684
0.340776684
0.340776684
0.325776684
0.345776684
0.345776684
0.345776684
0.345776684
0.335776684
0.325776684
0.325776684
0.315776684
0.325776684
0.360776684
0.375776684
0.405776684
0.430776684
0.430776684
0.430776684
0.420776684
0.410776684
0.405776684
0.405776684
0.425776684
0.410776684
0.395776684
0.395776684
0.385776684
0.390776684
0.390776684
0.390776684
0.390776684
0.385776684
0.390776684
0.395776684
0.390776684
0.400776684
0.435776684
0.440776684
0.480776684
0.490776684
0.480776684
0.480776684
0.490776684
0.490776684
0.385776684
0.355776684
0.365776684
0.370776684
0.375776684
0.365776684
0.350776684
0.295776684
0.505776684
1.165776684
1.590776684
1.435776684
0.305776684
0.305776684
0.320776684
0.320776684
0.330776684
0.330776684
0.325776684
0.315776684
0.315776684
0.315776684
0.325776684
0.320776684
0.325776684
0.325776684
0.325776684
0.315776684
0.300776684
0.295776684
0.270776684
0.270776684
0.295776684
0.305776684
0.370776684
0.400776684
0.415776684
0.415776684
0.430776684
0.420776684
0.420776684
0.420776684
0.420776684
0.400776684
0.405776684
0.405776684
0.390776684
0.380776684
0.375776684
0.375776684
0.380776684
0.395776684
0.385776684
0.385776684
0.390776684
0.405776684
0.460776684
0.480776684
0.495776684
0.495776684
0.470776684
0.495776684
0.475776684
0.420776684
0.375776684
0.370776684
0.365776684
0.360776684
0.355776684
0.355776684
0.290776684
0.480776684
1.655776684
1.655776684
0.520776684
0.335776684
0.335776684
0.335776684
0.340776684
0.330776684
0.340776684
0.335776684
0.345776684
0.335776684
0.335776684
0.335776684
0.325776684
0.315776684
0.330776684
0.330776684
0.310776684
0.300776684
0.280776684
0.280776684
0.285776684
0.315776684
0.370776684
0.390776684
0.415776684
0.430776684
0.440776684
0.440776684
0.445776684
0.425776684
0.415776684
0.415776684
0.405776684
0.400776684
0.390776684
0.390776684
0.375776684
0.375776684
0.380776684
0.380776684
0.385776684
0.385776684
0.380776684
0.380776684
0.395776684
0.440776684
0.460776684
0.460776684
0.485776684
0.475776684
0.465776684
0.490776684
0.475776684
0.410776684
0.350776684
0.350776684
0.345776684
0.360776684
0.345776684
0.285776684
0.680776684
1.225776684
1.730776684
1.730776684
0.325776684
0.330776684
0.320776684
0.315776684
0.320776684
0.315776684
0.330776684
0.330776684
0.335776684
0.325776684
0.325776684
0.325776684
0.335776684
0.335776684
0.330776684
0.330776684
0.330776684
0.325776684
0.320776684
0.320776684
0.325776684
0.370776684
0.400776684
0.400776684
0.430776684
0.440776684
0.435776684
0.435776684
0.430776684
0.420776684
0.425776684
0.425776684
0.390776684
0.385776684
0.385776684
0.385776684
0.385776684
0.390776684
0.375776684
0.375776684
0.385776684
0.395776684
0.420776684
0.425776684
0.455776684
0.505776684
0.505776684
0.500776684
0.495776684
0.480776684
0.495776684
0.465776684
0.370776684
0.375776684
0.365776684
0.365776684
0.355776684
0.335776684
0.445776684
1.090776684
1.575776684
1.455776684
0.300776684
0.320776684
0.330776684
0.315776684
0.320776684
0.320776684
0.315776684
0.310776684
0.320776684
0.330776684
0.330776684
0.325776684
0.325776684
0.325776684
0.325776684
0.325776684
0.325776684
0.325776684
0.300776684
0.290776684
0.305776684
0.320776684
0.380776684
0.410776684
0.405776684
0.410776684
0.420776684
0.430776684
0.430776684
0.425776684
0.415776684
0.410776684
0.405776684
0.405776684
0.410776684
0.400776684
0.390776684
0.390776684
0.385776684
0.395776684
0.385776684
0.385776684
0.395776684
0.410776684
0.460776684
0.465776684
0.495776684
0.485776684
0.485776684
0.485776684
0.490776684
0.475776684
0.360776684
0.360776684
0.370776684
0.370776684
0.370776684
0.370776684
0.310776684
0.295776684
1.550776684
1.635776684
0.880776684
0.310776684
0.325776684
0.325776684
0.325776684
0.320776684
0.315776684
0.315776684
0.320776684
0.325776684
0.325776684
0.315776684
0.320776684
0.325776684
0.325776684
0.325776684
0.335776684
0.325776684
0.300776684
0.295776684
0.265776684
0.285776684
0.310776684
0.325776684
0.380776684
0.410776684
0.425776684
0.425776684
0.440776684
0.440776684
0.425776684
0.425776684
0.425776684
0.410776684
0.395776684
0.395776684
0.395776684
0.380776684
0.375776684
0.375776684
0.385776684
0.385776684
0.390776684
0.390776684
0.385776684
0.395776684
0.420776684
0.425776684
0.460776684
0.490776684
0.480776684
0.480776684
0.470776684
0.505776684
0.445776684
0.395776684
0.360776684
0.360776684
0.360776684
0.360776684
0.350776684
0.270776684
0.600776684
1.160776684
1.705776684
1.660776684
0.315776684
0.310776684
0.300776684
0.310776684
0.315776684
0.315776684
0.320776684
0.325776684
0.335776684
0.335776684
0.335776684
0.330776684
0.330776684
0.330776684
0.330776684
0.335776684
0.335776684
0.335776684
0.325776684
0.315776684
0.315776684
0.325776684
0.360776684
0.405776684
0.440776684
0.440776684
0.445776684
0.460776684
0.440776684
0.440776684
0.445776684
0.430776684
0.425776684
0.420776684
0.415776684
0.395776684
0.385776684
0.385776684
0.380776684
0.375776684
0.390776684
0.390776684
0.380776684
0.380776684
0.380776684
0.385776684
0.425776684
0.450776684
0.475776684
0.475776684
0.480776684
0.480776684
0.495776684
0.495776684
0.380776684
0.370776684
0.360776684
0.360776684
0.355776684
0.350776684
0.325776684
0.235776684
1.320776684
1.625776684
1.330776684
0.310776684
0.320776684
0.315776684
0.315776684
0.315776684
0.305776684
0.315776684
0.320776684
0.320776684
0.320776684
0.325776684
0.325776684
0.325776684
0.315776684
0.320776684
0.320776684
0.325776684
0.335776684
0.325776684
0.310776684
0.310776684
0.315776684
0.350776684
0.410776684
0.410776684
0.425776684
0.430776684
0.425776684
0.430776684
0.435776684
0.445776684
0.435776684
0.430776684
0.410776684
0.400776684
0.390776684
0.390776684
0.390776684
0.380776684
0.380776684
0.380776684
0.375776684
0.380776684
0.395776684
0.395776684
0.380776684
0.380776684
0.435776684
0.445776684
0.480776684
0.485776684
0.475776684
0.475776684
0.505776684
0.485776684
0.395776684
0.375776684
0.360776684
0.360776684
0.355776684
0.355776684
0.330776684
0.265776684
0.945776684
1.545776684
1.535776684
0.625776684
0.315776684
0.315776684
0.330776684
0.330776684
0.320776684
0.320776684
0.300776684
0.310776684
0.315776684
0.315776684
0.325776684
0.320776684
0.315776684
0.315776684
0.325776684
0.345776684
0.325776684
0.320776684
0.315776684
0.300776684
0.280776684
0.280776684
0.315776684
0.350776684
0.390776684
0.390776684
0.405776684
0.425776684
0.425776684
0.425776684
0.415776684
0.425776684
0.415776684
0.415776684
0.405776684
0.385776684
0.390776684
0.390776684
0.380776684
0.395776684
0.385776684
0.375776684
0.385776684
0.390776684
0.400776684
0.400776684
0.400776684
0.445776684
0.460776684
0.460776684
0.490776684
0.495776684
0.470776684
0.470776684
0.485776684
0.430776684
0.380776684
0.380776684
0.360776684
0.360776684
0.355776684
0.355776684
0.320776684
0.275776684
1.490776684
1.645776684
1.160776684
0.295776684
0.320776684
0.320776684
0.320776684
0.320776684
0.330776684
0.330776684
0.320776684
0.330776684
0.325776684
0.320776684
0.315776684
0.315776684
0.320776684
0.320776684
0.325776684
0.310776684
0.285776684
0.285776684
0.265776684
0.280776684
0.325776684
0.330776684
0.395776684
0.405776684
0.415776684
0.415776684
0.415776684
0.400776684
0.390776684
0.390776684
0.395776684
0.395776684
0.395776684
0.395776684
0.375776684
0.370776684
0.365776684
0.365776684
0.375776684
0.390776684
0.385776684
0.385776684
0.390776684
0.390776684
0.435776684
0.450776684
0.480776684
0.505776684
0.490776684
0.480776684
0.505776684
0.525776684
0.455776684
0.430776684
0.390776684
0.370776684
0.380776684
0.380776684
0.365776684
0.290776684
1.225776684
1.785776684
1.825776684
1.130776684
0.340776684
0.340776684
0.310776684
0.315776684
0.315776684
0.315776684
0.315776684
0.310776684
0.325776684
0.325776684
0.330776684
0.315776684
0.315776684
0.315776684
0.315776684
0.320776684
0.300776684
0.295776684
0.300776684
0.300776684
0.335776684
0.365776684
0.395776684
0.415776684
0.430776684
0.430776684
0.425776684
0.410776684
0.415776684
0.415776684
0.405776684
0.390776684
0.385776684
0.385776684
0.380776684
0.405776684
0.380776684
0.380776684
0.370776684
0.375776684
0.385776684
0.395776684
0.415776684
0.455776684
0.465776684
0.480776684
0.505776684
0.490776684
0.520776684
0.520776684
0.445776684
0.400776684
0.385776684
0.385776684
0.365776684
0.350776684
0.345776684
0.305776684
0.940776684
1.595776684
1.575776684
0.580776684
0.335776684
0.340776684
0.340776684
0.340776684
0.340776684
0.325776684
0.335776684
0.335776684
0.345776684
0.345776684
0.330776684
0.330776684
0.345776684
0.355776684
0.355776684
0.355776684
0.340776684
0.330776684
0.330776684
0.335776684
0.370776684
0.400776684
0.420776684
0.420776684
0.445776684
0.440776684
0.455776684
0.455776684
0.445776684
0.430776684
0.415776684
0.415776684
0.405776684
0.395776684
0.380776684
0.380776684
0.380776684
0.395776684
0.370776684
0.380776684
0.390776684
0.385776684
0.400776684
0.400776684
0.405776684
0.440776684
0.495776684
0.495776684
0.495776684
0.475776684
0.480776684
0.475776684
0.365776684
0.360776684
0.370776684
0.370776684
0.355776684
0.350776684
0.305776684
0.240776684
1.000776684
1.555776684
1.480776684
0.510776684
0.320776684
0.320776684
0.330776684
0.330776684
0.325776684
0.320776684
0.315776684
0.315776684
0.330776684
0.330776684
0.330776684
0.330776684
0.330776684
0.330776684
0.340776684
0.340776684
0.325776684
0.295776684
0.275776684
0.275776684
0.305776684
0.365776684
0.415776684
0.415776684
0.420776684
0.450776684
0.435776684
0.430776684
0.405776684
0.415776684
0.415776684
0.410776684
0.405776684
0.400776684
0.385776684
0.385776684
0.390776684
0.390776684
0.405776684
0.405776684
0.395776684
0.400776684
0.390776684
0.390776684
0.450776684
0.455776684
0.495776684
0.495776684
0.490776684
0.500776684
0.495776684
0.435776684
0.365776684
0.365776684
0.365776684
0.365776684
0.360776684
0.345776684
0.240776684
0.600776684
1.630776684
1.630776684
0.385776684
0.320776684
0.335776684
0.340776684
0.325776684
0.320776684
0.320776684
0.325776684
0.320776684
0.320776684
0.325776684
0.320776684
0.320776684
0.320776684
0.330776684
0.350776684
0.335776684
0.330776684
0.315776684
0.300776684
0.290776684
0.295776684
0.280776684
0.315776684
0.375776684
0.380776684
0.415776684
0.430776684
0.435776684
0.435776684
0.415776684
0.415776684
0.400776684
0.400776684
0.420776684
0.410776684
0.380776684
0.380776684
0.380776684
0.380776684
0.390776684
0.390776684
0.380776684
0.385776684
0.375776684
0.375776684
0.375776684
0.385776684
0.405776684
0.420776684
0.445776684
0.480776684
0.480776684
0.480776684
0.475776684
0.505776684
0.485776684
0.430776684
0.380776684
0.375776684
0.365776684
0.365776684
0.365776684
0.350776684
0.230776684
0.245776684
1.410776684
1.705776684
1.410776684
0.325776684
0.320776684
0.310776684
0.305776684
0.305776684
0.315776684
0.315776684
0.310776684
0.310776684
0.320776684
0.330776684
0.330776684
0.330776684
0.320776684
0.320776684
0.335776684
0.335776684
0.335776684
0.335776684
0.320776684
0.320776684
0.320776684
0.340776684
0.390776684
0.390776684
0.415776684
0.420776684
0.430776684
0.430776684
0.425776684
0.430776684
0.430776684
0.430776684
0.415776684
0.395776684
0.395776684
0.395776684
0.390776684
0.385776684
0.365776684
0.365776684
0.370776684
0.370776684
0.385776684
0.385776684
0.385776684
0.390776684
0.385776684
0.395776684
0.450776684
0.495776684
0.480776684
0.480776684
0.465776684
0.460776684
0.485776684
0.485776684
0.375776684
0.370776684
0.355776684
0.355776684
0.355776684
0.340776684
0.215776684
0.565776684
1.610776684
1.610776684
0.565776684
0.295776684
0.320776684
0.325776684
0.325776684
0.325776684
0.315776684
0.335776684
0.340776684
0.340776684
0.335776684
0.360776684
0.350776684
0.350776684
0.350776684
0.355776684
0.350776684
0.350776684
0.355776684
0.360776684
0.355776684
0.345776684
0.355776684
0.360776684
0.415776684
0.425776684
0.440776684
0.450776684
0.455776684
0.455776684
0.445776684
0.445776684
0.445776684
0.445776684
0.425776684
0.410776684
0.410776684
0.410776684
0.405776684
0.400776684
0.385776684
0.375776684
0.370776684
0.395776684
0.385776684
0.385776684
0.385776684
0.405776684
0.450776684
0.475776684
0.495776684
0.495776684
0.470776684
0.470776684
0.490776684
0.460776684
0.385776684
0.385776684
0.355776684
0.350776684
0.355776684
0.355776684
0.275776684
0.480776684
1.580776684
1.580776684
0.385776684
0.330776684
0.335776684
0.320776684
0.325776684
0.330776684
0.345776684
0.345776684
0.330776684
0.325776684
0.320776684
0.325776684
0.345776684
0.335776684
0.330776684
0.330776684
0.340776684
0.315776684
0.310776684
0.310776684
0.300776684
0.295776684
0.355776684
0.360776684
0.405776684
0.440776684
0.425776684
0.410776684
0.435776684
0.430776684
0.430776684
0.425776684
0.415776684
0.400776684
0.400776684
0.395776684
0.400776684
0.400776684
0.375776684
0.375776684
0.375776684
0.390776684
0.385776684
0.385776684
0.395776684
0.420776684
0.455776684
0.460776684
0.490776684
0.495776684
0.490776684
0.480776684
0.495776684
0.495776684
0.405776684
0.370776684
0.365776684
0.365776684
0.360776684
0.360776684
0.295776684
0.425776684
1.650776684
1.650776684
0.685776684
0.325776684
0.350776684
0.350776684
0.340776684
0.325776684
0.335776684
0.335776684
0.325776684
0.335776684
0.320776684
0.315776684
0.305776684
0.305776684
0.325776684
0.325776684
0.320776684
0.310776684
0.285776684
0.285776684
0.270776684
0.280776684
0.300776684
0.305776684
0.360776684
0.385776684
0.400776684
0.405776684
0.410776684
0.405776684
0.400776684
0.400776684
0.400776684
0.400776684
0.405776684
0.405776684
0.395776684
0.385776684
0.380776684
0.375776684
0.380776684
0.380776684
0.390776684
0.390776684
0.385776684
0.375776684
0.380776684
0.380776684
0.385776684
0.440776684
0.460776684
0.475776684
0.490776684
0.485776684
0.510776684
0.510776684
0.410776684
0.380776684
0.365776684
0.365776684
0.360776684
0.365776684
0.355776684
0.290776684
0.950776684
1.705776684
1.770776684
0.990776684
0.330776684
0.315776684
0.305776684
0.305776684
0.315776684
0.305776684
0.305776684
0.305776684
0.305776684
0.310776684
0.310776684
0.305776684
0.305776684
0.310776684
0.310776684
0.315776684
0.315776684
0.295776684
0.305776684
0.305776684
0.345776684
0.390776684
0.430776684
0.430776684
0.425776684
0.415776684
0.420776684
0.420776684
0.410776684
0.395776684
0.400776684
0.400776684
0.390776684
0.385776684
0.375776684
0.375776684
0.375776684
0.380776684
0.385776684
0.385776684
0.395776684
0.385776684
0.390776684
0.390776684
0.450776684
0.485776684
0.510776684
0.510776684
0.480776684
0.510776684
0.505776684
0.450776684
0.415776684
0.405776684
0.365776684
0.360776684
0.350776684
0.360776684
0.330776684
0.230776684
1.480776684
1.585776684
0.755776684
0.340776684
0.350776684
0.340776684
0.330776684
0.330776684
0.350776684
0.360776684
0.360776684
0.360776684
0.355776684
0.355776684
0.365776684
0.365776684
0.365776684
0.365776684
0.355776684
0.355776684
0.340776684
0.335776684
0.360776684
0.360776684
0.385776684
0.410776684
0.445776684
0.445776684
0.435776684
0.435776684
0.420776684
0.410776684
0.410776684
0.400776684
0.400776684
0.400776684
0.385776684
0.390776684
0.375776684
0.365776684
0.375776684
0.370776684
0.365776684
0.365776684
0.380776684
0.390776684
0.430776684
0.430776684
0.445776684
0.465776684
0.480776684
0.480776684
0.470776684
0.485776684
0.425776684
0.375776684
0.345776684
0.360776684
0.350776684
0.350776684
0.335776684
0.270776684
0.585776684
1.075776684
1.615776684
1.615776684
0.310776684
0.310776684
0.315776684
0.315776684
0.320776684
0.320776684
0.330776684
0.330776684
0.315776684
0.315776684
0.325776684
0.330776684
0.320776684
0.310776684
0.335776684
0.325776684
0.300776684
0.300776684
0.270776684
0.270776684
0.285776684
0.310776684
0.370776684
0.395776684
0.420776684
0.420776684
0.420776684
0.440776684
0.420776684
0.420776684
0.420776684
0.405776684
0.400776684
0.400776684
0.390776684
0.400776684
0.385776684
0.385776684
0.375776684
0.375776684
0.385776684
0.385776684
0.385776684
0.385776684
0.385776684
0.385776684
0.425776684
0.465776684
0.510776684
0.510776684
0.480776684
0.470776684
0.480776684
0.460776684
0.390776684
0.370776684
0.365776684
0.365776684
0.355776684
0.355776684
0.355776684
0.310776684
0.860776684
1.585776684
1.650776684
0.880776684
0.325776684
0.330776684
0.310776684
0.310776684
0.325776684
0.320776684
0.325776684
0.325776684
0.335776684
0.320776684
0.315776684
0.315776684
0.320776684
0.310776684
0.325776684
0.325776684
0.320776684
0.305776684
0.290776684
0.290776684
0.290776684
0.295776684
0.345776684
0.370776684
0.385776684
0.400776684
0.410776684
0.410776684
0.410776684
0.410776684
0.405776684
0.405776684
0.390776684
0.385776684
0.395776684
0.395776684
0.385776684
0.380776684
0.385776684
0.385776684
0.380776684
0.390776684
0.390776684
0.390776684
0.380776684
0.380776684
0.385776684
0.410776684
0.460776684
0.465776684
0.485776684
0.490776684
0.475776684
0.465776684
0.505776684
0.505776684
0.400776684
0.370776684
0.370776684
0.370776684
0.370776684
0.355776684
0.315776684
0.225776684
1.295776684
1.710776684
1.615776684
0.580776684
0.345776684
0.340776684
0.310776684
0.305776684
0.310776684
0.320776684
0.325776684
0.325776684
0.330776684
0.325776684
0.330776684
0.330776684
0.330776684
0.325776684
0.325776684
0.325776684
0.330776684
0.325776684
0.320776684
0.320776684
0.310776684
0.315776684
0.330776684
0.340776684
0.390776684
0.415776684
0.410776684
0.410776684
0.400776684
0.405776684
0.425776684
0.425776684
0.400776684
0.400776684
0.400776684
0.400776684
0.405776684
0.390776684
0.380776684
0.380776684
0.360776684
0.380776684
0.375776684
0.375776684
0.380776684
0.370776684
0.380776684
0.380776684
0.385776684
0.415776684
0.450776684
0.450776684
0.485776684
0.485776684
0.480776684
0.490776684
0.505776684
0.440776684
0.370776684
0.370776684
0.375776684
0.370776684
0.355776684
0.355776684
0.225776684
0.170776684
0.715776684
1.435776684
1.590776684
1.120776684
0.335776684
0.335776684
0.330776684
0.335776684
0.335776684
0.335776684
0.340776684
0.335776684
0.340776684
0.340776684
0.350776684
0.330776684
0.340776684
0.345776684
0.350776684
0.360776684
0.355776684
0.355776684
0.345776684
0.345776684
0.335776684
0.335776684
0.335776684
0.375776684
0.405776684
0.405776684
0.425776684
0.430776684
0.420776684
0.415776684
0.415776684
0.425776684
0.415776684
0.415776684
0.400776684
0.390776684
0.390776684
0.390776684
0.390776684
0.380776684
0.385776684
0.385776684
0.385776684
0.375776684
0.390776684
0.385776684
0.405776684
0.440776684
0.480776684
0.490776684
0.500776684
0.490776684
0.480776684
0.480776684
0.385776684
0.380776684
0.365776684
0.365776684
0.365776684
0.365776684
0.360776684
0.325776684
0.975776684
1.605776684
1.525776684
0.495776684
0.330776684
0.330776684
0.325776684
0.325776684
0.320776684
0.330776684
0.315776684
0.315776684
0.320776684
0.315776684
0.320776684
0.320776684
0.305776684
0.310776684
0.295776684
0.295776684
0.300776684
0.275776684
0.265776684
0.265776684
0.300776684
0.330776684
0.370776684
0.375776684
0.405776684
0.405776684
0.415776684
0.415776684
0.410776684
0.405776684
0.405776684
0.405776684
0.400776684
0.385776684
0.375776684
0.375776684
0.385776684
0.395776684
0.385776684
0.385776684
0.380776684
0.385776684
0.400776684
0.400776684
0.430776684
0.470776684
0.510776684
0.510776684
0.505776684
0.495776684
0.495776684
0.465776684
0.380776684
0.380776684
0.375776684
0.375776684
0.355776684
0.315776684
0.845776684
1.570776684
1.655776684
0.885776684
0.315776684
0.315776684
0.315776684
0.320776684
0.330776684
0.330776684
0.320776684
0.315776684
0.315776684
0.315776684
0.330776684
0.325776684
0.320776684
0.320776684
0.315776684
0.310776684
0.310776684
0.310776684
0.300776684
0.290776684
0.300776684
0.330776684
0.380776684
0.390776684
0.415776684
0.415776684
0.425776684
0.430776684
0.410776684
0.410776684
0.405776684
0.405776684
0.395776684
0.395776684
0.385776684
0.385776684
0.390776684
0.390776684
0.380776684
0.380776684
0.375776684
0.375776684
0.390776684
0.390776684
0.405776684
0.435776684
0.465776684
0.520776684
0.490776684
0.490776684
0.480776684
0.495776684
0.500776684
0.430776684
0.375776684
0.370776684
0.345776684
0.345776684
0.340776684
0.320776684
0.615776684
1.345776684
1.635776684
1.305776684
0.320776684
0.320776684
0.315776684
0.330776684
0.315776684
0.315776684
0.320776684
0.320776684
0.330776684
0.330776684
0.330776684
0.325776684
0.330776684
0.330776684
0.335776684
0.330776684
0.330776684
0.330776684
0.320776684
0.315776684
0.330776684
0.330776684
0.350776684
0.385776684
0.410776684
0.410776684
0.420776684
0.430776684
0.420776684
0.415776684
0.415776684
0.405776684
0.405776684
0.405776684
0.395776684
0.385776684
0.385776684
0.385776684
0.380776684
0.375776684
0.385776684
0.385776684
0.380776684
0.380776684
0.390776684
0.390776684
0.460776684
0.465776684
0.490776684
0.490776684
0.470776684
0.470776684
0.510776684
0.510776684
0.425776684
0.375776684
0.360776684
0.360776684
0.365776684
0.365776684
0.275776684
0.390776684
1.500776684
1.500776684
0.425776684
0.325776684
0.330776684
0.330776684
0.325776684
0.325776684
0.335776684
0.340776684
0.335776684
0.335776684
0.335776684
0.335776684
0.335776684
0.340776684
0.360776684
0.355776684
0.335776684
0.335776684
0.325776684
0.325776684
0.315776684
0.315776684
0.340776684
0.385776684
0.400776684
0.410776684
0.430776684
0.435776684
0.430776684
0.430776684
0.405776684
0.415776684
0.405776684
0.400776684
0.405776684
0.395776684
0.380776684
0.390776684
0.385776684
0.385776684
0.390776684
0.390776684
0.385776684
0.370776684
0.405776684
0.405776684
0.415776684
0.445776684
0.475776684
0.480776684
0.470776684
0.465776684
0.475776684
0.475776684
0.375776684
0.360776684
0.355776684
0.355776684
0.370776684
0.340776684
0.250776684
0.460776684
1.555776684
1.555776684
0.425776684
0.295776684
0.315776684
0.315776684
0.330776684
0.330776684
0.335776684
0.325776684
0.305776684
0.305776684
0.320776684
0.315776684
0.305776684
0.305776684
0.310776684
0.310776684
0.305776684
0.305776684
0.295776684
0.265776684
0.255776684
0.270776684
0.310776684
0.340776684
0.385776684
0.395776684
0.410776684
0.420776684
0.415776684
0.410776684
0.405776684
0.390776684
0.410776684
0.410776684
0.395776684
0.385776684
0.375776684
0.375776684
0.370776684
0.365776684
0.380776684
0.380776684
0.380776684
0.380776684
0.370776684
0.370776684
0.385776684
0.425776684
0.455776684
0.460776684
0.495776684
0.495776684
0.480776684
0.480776684
0.505776684
0.445776684
0.380776684
0.380776684
0.365776684
0.370776684
0.370776684
0.370776684
0.350776684
0.245776684
1.015776684
1.615776684
1.640776684
0.655776684
0.345776684
0.340776684
0.345776684
0.350776684
0.345776684
0.345776684
0.360776684
0.345776684
0.340776684
0.340776684
0.330776684
0.335776684
0.330776684
0.330776684
0.320776684
0.310776684
0.310776684
0.310776684
0.300776684
0.305776684
0.310776684
0.315776684
0.365776684
0.390776684
0.415776684
0.415776684
0.420776684
0.415776684
0.410776684
0.405776684
0.430776684
0.415776684
0.410776684
0.405776684
0.400776684
0.395776684
0.390776684
0.390776684
0.380776684
0.370776684
0.380776684
0.380776684
0.400776684
0.400776684
0.385776684
0.385776684
0.435776684
0.470776684
0.470776684
0.475776684
0.490776684
0.475776684
0.490776684
0.495776684
0.430776684
0.395776684
0.350776684
0.355776684
0.350776684
0.360776684
0.345776684
0.295776684
0.570776684
1.300776684
1.565776684
1.315776684
0.325776684
0.340776684
0.330776684
0.330776684
0.325776684
0.325776684
0.320776684
0.320776684
0.325776684
0.335776684
0.325776684
0.325776684
0.330776684
0.345776684
0.340776684
0.340776684
0.335776684
0.315776684
0.315776684
0.315776684
0.325776684
0.340776684
0.365776684
0.370776684
0.400776684
0.415776684
0.425776684
0.425776684
0.420776684
0.420776684
0.415776684
0.415776684
0.400776684
0.395776684
0.400776684
0.400776684
0.375776684
0.375776684
0.380776684
0.380776684
0.380776684
0.380776684
0.370776684
0.370776684
0.385776684
0.385776684
0.445776684
0.445776684
0.475776684
0.495776684
0.480776684
0.475776684
0.485776684
0.510776684
0.445776684
0.400776684
0.370776684
0.365776684
0.350776684
0.350776684
0.355776684
0.320776684
0.540776684
1.215776684
1.510776684
1.280776684
0.305776684
0.305776684
0.335776684
0.320776684
0.320776684
0.320776684
0.325776684
0.315776684
0.335776684
0.335776684
0.315776684
0.315776684
0.320776684
0.320776684
0.330776684
0.345776684
0.340776684
0.340776684
0.315776684
0.305776684
0.305776684
0.305776684
0.325776684
0.365776684
0.405776684
0.405776684
0.420776684
0.435776684
0.430776684
0.430776684
0.415776684
0.405776684
0.410776684
0.410776684
0.395776684
0.395776684
0.385776684
0.380776684
0.390776684
0.380776684
0.405776684
0.405776684
0.385776684
0.380776684
0.395776684
0.395776684
0.435776684
0.465776684
0.490776684
0.490776684
0.490776684
0.470776684
0.460776684
0.450776684
0.385776684
0.375776684
0.355776684
0.355776684
0.355776684
0.360776684
0.305776684
0.350776684
1.510776684
1.555776684
0.725776684
0.325776684
0.345776684
0.335776684
0.325776684
0.325776684
0.310776684
0.305776684
0.310776684
0.315776684
0.315776684
0.310776684
0.325776684
0.325776684
0.310776684
0.320776684
0.305776684
0.305776684
0.265776684
0.265776684
0.270776684
0.270776684
0.315776684
0.345776684
0.405776684
0.405776684
0.420776684
0.420776684
0.415776684
0.410776684
0.420776684
0.400776684
0.405776684
0.405776684
0.400776684
0.385776684
0.385776684
0.385776684
0.385776684
0.370776684
0.375776684
0.375776684
0.370776684
0.390776684
0.390776684
0.390776684
0.440776684
0.465776684
0.495776684
0.495776684
0.470776684
0.480776684
0.490776684
0.435776684
0.370776684
0.355776684
0.365776684
0.365776684
0.360776684
0.320776684
0.825776684
1.555776684
1.745776684
1.380776684
0.290776684
0.310776684
0.320776684
0.305776684
0.320776684
0.320776684
0.325776684
0.320776684
0.320776684
0.320776684
0.320776684
0.325776684
0.335776684
0.335776684
0.325776684
0.320776684
0.325776684
0.320776684
0.310776684
0.305776684
0.310776684
0.325776684
0.385776684
0.415776684
0.425776684
0.425776684
0.420776684
0.415776684
0.420776684
0.420776684
0.410776684
0.400776684
0.400776684
0.400776684
0.395776684
0.390776684
0.375776684
0.375776684
0.380776684
0.385776684
0.385776684
0.375776684
0.385776684
0.395776684
0.460776684
0.460776684
0.475776684
0.485776684
0.490776684
0.475776684
0.500776684
0.500776684
0.400776684
0.375776684
0.370776684
0.360776684
0.350776684
0.350776684
0.310776684
0.890776684
1.715776684
1.715776684
0.420776684
0.315776684
0.320776684
0.320776684
0.330776684
0.330776684
0.335776684
0.335776684
0.335776684
0.355776684
0.350776684
0.350776684
0.355776684
0.355776684
0.355776684
0.355776684
0.360776684
0.350776684
0.350776684
0.350776684
0.345776684
0.350776684
0.380776684
0.395776684
0.430776684
0.435776684
0.435776684
0.435776684
0.435776684
0.435776684
0.435776684
0.435776684
0.405776684
0.405776684
0.395776684
0.395776684
0.380776684
0.380776684
0.390776684
0.390776684
0.390776684
0.385776684
0.370776684
0.370776684
0.400776684
0.390776684
0.455776684
0.455776684
0.480776684
0.480776684
0.480776684
0.480776684
0.490776684
0.420776684
0.370776684
0.370776684
0.380776684
0.370776684
0.360776684
0.350776684
0.305776684
0.270776684
1.410776684
1.525776684
0.955776684
0.305776684
0.325776684
0.325776684
0.315776684
0.325776684
0.315776684
0.315776684
0.315776684
0.305776684
0.315776684
0.315776684
0.320776684
0.325776684
0.315776684
0.315776684
0.325776684
0.320776684
0.300776684
0.300776684
0.275776684
0.270776684
0.260776684
0.260776684
0.345776684
0.370776684
0.395776684
0.395776684
0.410776684
0.415776684
0.415776684
0.415776684
0.435776684
0.415776684
0.395776684
0.395776684
0.395776684
0.400776684
0.390776684
0.390776684
0.375776684
0.385776684
0.390776684
0.390776684
0.395776684
0.385776684
0.385776684
0.385776684
0.400776684
0.450776684
0.475776684
0.480776684
0.495776684
0.475776684
0.505776684
0.505776684
0.415776684
0.390776684
0.365776684
0.365776684
0.360776684
0.380776684
0.370776684
0.370776684
0.285776684
0.780776684
1.610776684
1.610776684
0.320776684
0.345776684
0.335776684
0.335776684
0.350776684
0.350776684
0.340776684
0.340776684
0.335776684
0.345776684
0.345776684
0.345776684
0.335776684
0.330776684
0.330776684
0.330776684
0.330776684
0.325776684
0.305776684
0.295776684
0.285776684
0.290776684
0.320776684
0.325776684
0.375776684
0.395776684
0.410776684
0.410776684
0.410776684
0.415776684
0.405776684
0.405776684
0.400776684
0.400776684
0.395776684
0.395776684
0.385776684
0.380776684
0.390776684
0.390776684
0.395776684
0.390776684
0.370776684
0.370776684
0.375776684
0.370776684
0.395776684
0.395776684
0.440776684
0.445776684
0.495776684
0.495776684
0.475776684
0.470776684
0.510776684
0.505776684
0.390776684
0.380776684
0.375776684
0.375776684
0.365776684
0.355776684
0.300776684
0.255776684
1.500776684
1.645776684
1.035776684
0.330776684
0.340776684
0.335776684
0.320776684
0.325776684
0.325776684
0.325776684
0.315776684
0.315776684
0.315776684
0.335776684
0.320776684
0.320776684
0.325776684
0.330776684
0.330776684
0.330776684
0.345776684
0.325776684
0.320776684
0.320776684
0.330776684
0.350776684
0.385776684
0.385776684
0.410776684
0.415776684
0.410776684
0.410776684
0.420776684
0.420776684
0.405776684
0.400776684
0.390776684
0.385776684
0.395776684
0.395776684
0.385776684
0.375776684
0.370776684
0.370776684
0.375776684
0.390776684
0.390776684
0.390776684
0.380776684
0.380776684
0.425776684
0.435776684
0.480776684
0.500776684
0.490776684
0.475776684
0.505776684
0.500776684
0.395776684
0.370776684
0.370776684
0.370776684
0.355776684
0.355776684
0.315776684
0.285776684
1.430776684
1.700776684
1.675776684
1.065776684
0.335776684
0.335776684
0.340776684
0.340776684
0.335776684
0.335776684
0.345776684
0.345776684
0.350776684
0.350776684
0.355776684
0.355776684
0.360776684
0.360776684
0.375776684
0.370776684
0.345776684
0.350776684
0.345776684
0.325776684
0.360776684
0.360776684
0.400776684
0.405776684
0.435776684
0.435776684
0.430776684
0.435776684
0.425776684
0.425776684
0.405776684
0.405776684
0.395776684
0.385776684
0.390776684
0.390776684
0.385776684
0.385776684
0.385776684
0.375776684
0.385776684
0.385776684
0.380776684
0.375776684
0.425776684
0.425776684
0.455776684
0.490776684
0.470776684
0.465776684
0.470776684
0.470776684
0.400776684
0.360776684
0.355776684
0.355776684
0.360776684
0.360776684
0.345776684
0.330776684
0.590776684
1.285776684
1.545776684
1.155776684
0.310776684
0.315776684
0.330776684
0.325776684
0.320776684
0.320776684
0.315776684
0.330776684
0.330776684
0.320776684
0.305776684
0.335776684
0.325776684
0.320776684
0.315776684
0.310776684
0.300776684
0.280776684
0.275776684
0.270776684
0.315776684
0.335776684
0.395776684
0.425776684
0.430776684
0.420776684
0.425776684
0.425776684
0.415776684
0.415776684
0.400776684
0.395776684
0.390776684
0.390776684
0.405776684
0.390776684
0.385776684
0.385776684
0.390776684
0.400776684
0.385776684
0.385776684
0.385776684
0.425776684
0.465776684
0.470776684
0.485776684
0.475776684
0.480776684
0.480776684
0.425776684
0.385776684
0.370776684
0.350776684
0.355776684
0.350776684
0.345776684
0.275776684
0.525776684
1.055776684
1.570776684
1.565776684
0.325776684
0.340776684
0.335776684
0.325776684
0.320776684
0.325776684
0.330776684
0.330776684
0.325776684
0.335776684
0.325776684
0.325776684
0.330776684
0.335776684
0.325776684
0.320776684
0.300776684
0.295776684
0.290776684
0.290776684
0.305776684
0.355776684
0.400776684
0.415776684
0.435776684
0.440776684
0.425776684
0.425776684
0.415776684
0.410776684
0.420776684
0.420776684
0.405776684
0.400776684
0.385776684
0.390776684
0.385776684
0.400776684
0.395776684
0.395776684
0.380776684
0.375776684
0.380776684
0.380776684
0.425776684
0.455776684
0.480776684
0.480776684
0.485776684
0.475776684
0.515776684
0.515776684
0.400776684
0.365776684
0.355776684
0.355776684
0.345776684
0.350776684
0.320776684
0.255776684
0.620776684
1.315776684
1.545776684
1.210776684
0.335776684
0.330776684
0.325776684
0.325776684
0.320776684
0.330776684
0.335776684
0.335776684
0.320776684
0.325776684
0.320776684
0.320776684
0.330776684
0.335776684
0.325776684
0.315776684
0.330776684
0.330776684
0.310776684
0.310776684
0.335776684
0.385776684
0.405776684
0.420776684
0.430776684
0.435776684
0.430776684
0.430776684
0.420776684
0.405776684
0.395776684
0.395776684
0.395776684
0.400776684
0.380776684
0.385776684
0.375776684
0.380776684
0.390776684
0.390776684
0.395776684
0.395776684
0.410776684
0.410776684
0.465776684
0.495776684
0.500776684
0.500776684
0.480776684
0.505776684
0.465776684
0.420776684
0.375776684
0.365776684
0.360776684
0.360776684
0.345776684
0.330776684
0.420776684
0.720776684
1.530776684
1.530776684
0.320776684
0.320776684
0.335776684
0.315776684
0.325776684
0.325776684
0.325776684
0.345776684
0.330776684
0.320776684
0.330776684
0.340776684
0.325776684
0.330776684
0.345776684
0.350776684
0.320776684
0.320776684
0.305776684
0.315776684
0.305776684
0.305776684
0.365776684
0.395776684
0.425776684
0.425776684
0.435776684
0.425776684
0.430776684
0.425776684
0.420776684
0.425776684
0.410776684
0.410776684
0.385776684
0.380776684
0.390776684
0.390776684
0.390776684
0.375776684
0.375776684
0.375776684
0.380776684
0.390776684
0.415776684
0.435776684
0.445776684
0.505776684
0.505776684
0.485776684
0.485776684
0.485776684
0.415776684
0.380776684
0.380776684
0.380776684
0.360776684
0.360776684
0.355776684
0.335776684
0.650776684
1.380776684
1.610776684
1.140776684
0.315776684
0.325776684
0.330776684
0.335776684
0.335776684
0.335776684
0.335776684
0.335776684
0.330776684
0.325776684
0.325776684
0.335776684
0.335776684
0.335776684
0.330776684
0.325776684
0.315776684
0.315776684
0.300776684
0.290776684
0.280776684
0.280776684
0.290776684
0.320776684
0.370776684
0.370776684
0.395776684
0.410776684
0.405776684
0.405776684
0.385776684
0.390776684
0.390776684
0.390776684
0.385776684
0.390776684
0.390776684
0.375776684
0.375776684
0.370776684
0.375776684
0.375776684
0.380776684
0.390776684
0.375776684
0.375776684
0.380776684
0.415776684
0.465776684
0.465776684
0.480776684
0.495776684
0.475776684
0.475776684
0.530776684
0.500776684
0.385776684
0.370776684
0.380776684
0.395776684
0.385776684
0.385776684
0.380776684
0.355776684
0.485776684
1.070776684
1.680776684
1.680776684
0.355776684
0.355776684
0.345776684
0.345776684
0.345776684
0.345776684
0.340776684
0.340776684
0.345776684
0.345776684
0.340776684
0.335776684
0.335776684
0.335776684
0.330776684
0.330776684
0.335776684
0.335776684
0.345776684
0.330776684
0.310776684
0.305776684
0.315776684
0.355776684
0.395776684
0.395776684
0.425776684
0.425776684
0.415776684
0.415776684
0.425776684
0.420776684
0.415776684
0.415776684
0.395776684
0.390776684
0.385776684
0.385776684
0.385776684
0.370776684
0.365776684
0.365776684
0.375776684
0.385776684
0.380776684
0.380776684
0.380776684
0.385776684
0.450776684
0.450776684
0.480776684
0.495776684
0.475776684
0.470776684
0.475776684
0.500776684
0.420776684
0.395776684
0.385776684
0.370776684
0.370776684
0.370776684
0.360776684
0.300776684
0.740776684
1.350776684
1.655776684
1.540776684
0.325776684
0.325776684
0.310776684
0.310776684
0.320776684
0.310776684
0.330776684
0.330776684
0.330776684
0.325776684
0.320776684
0.320776684
0.320776684
0.320776684
0.320776684
0.325776684
0.325776684
0.325776684
0.320776684
0.320776684
0.325776684
0.325776684
0.360776684
0.395776684
0.410776684
0.410776684
0.420776684
0.420776684
0.405776684
0.405776684
0.405776684
0.405776684
0.395776684
0.395776684
