date,OT
1,0.175866051
2,0.175573501
3,0.196668525
4,0.202396978
5,0.202838619
6,0.198425585
7,0.203472418
8,0.212636898
9,0.228661456
10,0.230398452
11,0.218382903
12,0.182685182
13,0.166907153
14,0.190877317
15,0.480363983
16,0.498209151
17,0.30323157
18,0.185582267
19,0.221089628
20,0.210564615
21,0.156563916
22,0.152690015
23,0.135709449
24,0.12556808
25,0.148408421
26,0.154996472
27,0.160590232
28,0.171568026
29,0.194668754
30,0.197408514
31,0.197685237
32,0.192583787
33,0.181539156
34,0.189563494
35,0.221696771
36,0.225757888
37,0.222764671
38,0.204961385
39,0.14676403
40,0.138171513
41,0.403109853
42,0.702960739
43,0.72415044
44,0.399738308
45,0.159471132
46,0.159471132
47,0.11996449
48,0.120912613
49,0.134405143
50,0.139706355
51,0.150091553
52,0.159153244
53,0.175573501
54,0.175573501
55,0.188200518
56,0.195591992
57,0.199026843
58,0.198734709
59,0.191218203
60,0.197289477
61,0.229540593
62,0.230456496
63,0.227181173
64,0.210897332
65,0.167033281
66,0.148802658
67,0.258631383
68,0.451071626
69,0.530100166
70,0.439832114
71,0.136009641
72,0.16215487
73,0.163466158
74,0.155972378
75,0.134849731
76,0.134849731
77,0.145435164
78,0.157880895
79,0.175573501
80,0.175573501
81,0.175573501
82,0.175738562
83,0.175573501
84,0.175573501
85,0.175573501
86,0.182078542
87,0.20495587
88,0.213557195
89,0.218322519
90,0.218322519
91,0.202073801
92,0.187675769
93,0.204349935
94,0.310569032
95,0.709143224
96,0.709143224
97,0.196177104
98,0.134875749
99,0.131265976
100,0.131785344
101,0.14251759
102,0.140984382
103,0.122791199
104,0.137234025
105,0.159986406
106,0.173190281
107,0.175573501
108,0.175573501
109,0.187121429
110,0.199220091
111,0.209196504
112,0.209196504
113,0.223602607
114,0.237690932
115,0.245794262
116,0.245794262
117,0.19913981
118,0.16948398
119,0.188619889
120,0.272267818
121,0.554103078
122,0.554103078
123,0.128156538
124,0.145515876
125,0.173794595
126,0.15646426
127,0.155572166
128,0.141353385
129,0.147970968
130,0.155222839
131,0.18212619
132,0.189457272
133,0.189443983
134,0.184534643
135,0.175843944
136,0.1838714
137,0.18918257
138,0.191520476
139,0.219953546
140,0.236064051
141,0.240244454
142,0.238648253
143,0.19534726
144,0.17332663
145,0.21075586
146,0.291344961
147,0.713824973
148,0.713824973
149,0.18239679
150,0.109237942
151,0.124752984
152,0.124752984
153,0.103482759
154,0.097349199
155,0.097305667
156,0.114768168
157,0.166632178
158,0.176975378
159,0.179069308
160,0.175573501
161,0.18288174
162,0.193193045
163,0.203917919
164,0.204624385
165,0.20969757
166,0.216929358
167,0.231060953
168,0.232332284
169,0.228731036
170,0.210654736
171,0.15421387
172,0.160881292
173,0.383989241
174,0.597304357
175,0.609634807
176,0.35627722
177,0.159654619
178,0.169238416
179,0.146105783
180,0.146575495
181,0.143797787
182,0.146849073
183,0.164114938
184,0.168455001
185,0.176826465
186,0.177353615
187,0.175801888
188,0.178415472
189,0.191241776
190,0.195576519
191,0.20337776
192,0.212663117
193,0.243855593
194,0.248875254
195,0.24853358
196,0.240351651
197,0.178058811
198,0.159482537
199,0.208803325
200,0.356743929
201,0.682276676
202,0.682276676
203,0.142664177
204,0.155054435
205,0.170724183
206,0.123337318
207,0.122058796
208,0.122058796
209,0.115639709
210,0.13656641
211,0.166257646
212,0.175573501
213,0.175573501
214,0.175573501
215,0.176634266
216,0.182000116
217,0.194631762
218,0.200079683
219,0.22287706
220,0.230334436
221,0.237664213
222,0.237664213
223,0.204755213
224,0.187810779
225,0.204935984
226,0.268285161
227,0.559788921
228,0.559788921
229,0.135438247
230,0.20293831
231,0.16916225
232,0.155879897
233,0.169877239
234,0.169877239
235,0.143671699
236,0.147618683
237,0.159823746
238,0.171114048
239,0.179103978
240,0.179103978
241,0.179701741
242,0.18580258
243,0.189846293
244,0.189846293
245,0.193088611
246,0.198244146
247,0.220355025
248,0.220355025
249,0.204898419
250,0.17432146
251,0.14701992
252,0.210732699
253,0.50389935
254,0.582951593
255,0.44826757
256,0.143896853
257,0.149249392
258,0.130996327
259,0.131680917
260,0.114651705
261,0.100114232
262,0.110699126
263,0.143210633
264,0.162417973
265,0.175573501
266,0.175573501
267,0.175573501
268,0.182667369
269,0.191691487
270,0.191866937
271,0.191379526
272,0.196231785
273,0.21667905
274,0.235085088
275,0.23861872
276,0.228532095
277,0.174587114
278,0.164614348
279,0.265627496
280,0.416847581
281,0.551953914
282,0.489367605
283,0.194861243
284,0.194861243
285,0.149182142
286,0.149521516
287,0.148752006
288,0.139315573
289,0.163549608
290,0.16976766
291,0.173358988
292,0.173484472
293,0.175573501
294,0.175573501
295,0.180253529
296,0.181883144
297,0.186154134
298,0.19250528
299,0.224152604
300,0.245012197
301,0.250893104
302,0.250505427
303,0.220394228
304,0.195222225
305,0.175095334
306,0.195241512
307,0.469498317
308,0.505322622
309,0.299551733
310,0.14617559
311,0.188418216
312,0.188418216
313,0.159815366
314,0.158878235
315,0.150755735
316,0.145492497
317,0.15680906
318,0.161430848
319,0.175249621
320,0.177321214
321,0.177048864
322,0.184234976
323,0.196311528
324,0.202151509
325,0.206389201
326,0.213566276
327,0.232679596
328,0.235812895
329,0.234649473
330,0.22276621
331,0.172836234
332,0.157287471
333,0.22743207
334,0.354120863
335,0.500295387
336,0.488279464
337,0.158525807
338,0.184831958
339,0.168395512
340,0.168395512
341,0.150766583
342,0.139886797
343,0.140056172
344,0.149982107
345,0.177453595
346,0.178819894
347,0.177574119
348,0.176617156
349,0.203013336
350,0.203721309
351,0.202672421
352,0.196956909
353,0.205497873
354,0.213910076
355,0.230438758
356,0.230438758
357,0.198499996
358,0.171505324
359,0.175229482
360,0.259016964
361,0.504733836
362,0.504733836
363,0.168594901
364,0.183461461
365,0.199033896
366,0.156631674
367,0.157643647
368,0.157643647
369,0.152600317
370,0.1659948
371,0.178217894
372,0.178217894
373,0.172552726
374,0.173960489
375,0.190670803
376,0.197713444
377,0.203911837
378,0.204715972
379,0.201059646
380,0.204977913
381,0.2144247
382,0.2144247
383,0.202795476
384,0.18275461
385,0.153436248
386,0.168973738
387,0.367724619
388,0.535435296
389,0.530199172
390,0.192006664
391,0.176728544
392,0.176728544
393,0.165460431
394,0.163939314
395,0.15493878
396,0.157115364
397,0.160687796
398,0.165433337
399,0.175573501
400,0.175573501
401,0.175573501
402,0.180834711
403,0.19516287
404,0.199352208
405,0.201864816
406,0.202000259
407,0.207364078
408,0.215148958
409,0.22707462
410,0.22707462
411,0.205067361
412,0.175573501
413,0.15261026
414,0.195169713
415,0.416276653
416,0.465542143
417,0.383122337
418,0.124141704
419,0.169654054
420,0.164809816
421,0.160329341
422,0.155579678
423,0.141033397
424,0.134077918
425,0.150341191
426,0.16765287
427,0.175573501
428,0.175573501
429,0.178278167
430,0.192197059
431,0.200401433
432,0.200401433
433,0.1830261
434,0.188245803
435,0.208422141
436,0.222422021
437,0.231770786
438,0.231770786
439,0.198786126
440,0.168675727
441,0.192606669
442,0.295540519
443,0.452755702
444,0.452755702
445,0.199111807
446,0.199111807
447,0.154400964
448,0.144149428
449,0.146262459
450,0.139320697
451,0.15356176
452,0.160740417
453,0.168836624
454,0.17063718
455,0.173439884
456,0.175573501
457,0.176522344
458,0.179389959
459,0.181553954
460,0.180922462
461,0.202015055
462,0.222901015
463,0.237046026
464,0.237046026
465,0.223750506
466,0.192318809
467,0.179369781
468,0.190056698
469,0.472895211
470,0.487847635
471,0.285331363
472,0.129148501
473,0.160009905
474,0.160009905
475,0.154362518
476,0.163496503
477,0.163253098
478,0.156685893
479,0.166862141
480,0.171379321
481,0.175573501
482,0.175573501
483,0.175573501
484,0.175573501
485,0.180993248
486,0.183683203
487,0.18387541
488,0.186176887
489,0.211120094
490,0.22443609
491,0.226460953
492,0.223937489
493,0.192634777
494,0.181011934
495,0.221028876
496,0.278945229
497,0.443578254
498,0.443578254
499,0.151139165
500,0.175456366
501,0.160466958
502,0.166882744
503,0.15442879
504,0.138948043
505,0.141294019
506,0.147763461
507,0.173276607
508,0.175573501
509,0.176437246
510,0.175573501
511,0.186829912
512,0.190944739
513,0.192487183
514,0.191919842
515,0.187780146
516,0.192641253
517,0.216481004
518,0.221359552
519,0.220144381
520,0.208622992
521,0.163468592
522,0.16249646
523,0.284807105
524,0.437983463
525,0.477503156
526,0.336156966
527,0.185861375
528,0.186019472
529,0.172304564
530,0.172304564
531,0.166345505
532,0.170714056
533,0.175573501
534,0.175573501
535,0.171169684
536,0.171771127
537,0.175573501
538,0.175573501
539,0.181838533
540,0.190275769
541,0.194309867
542,0.194309867
543,0.190570869
544,0.191298459
545,0.236169005
546,0.240899187
547,0.236207799
548,0.215238155
549,0.164953926
550,0.168083111
551,0.255047661
552,0.400795462
553,0.415285839
554,0.255878925
555,0.160704299
556,0.160704299
557,0.179578248
558,0.179578248
559,0.148630778
560,0.144400387
561,0.145806248
562,0.158160112
563,0.175573501
564,0.175573501
565,0.175573501
566,0.175573501
567,0.188253309
568,0.189380683
569,0.185977049
570,0.177232379
571,0.189128458
572,0.196713899
573,0.215599285
574,0.21614013
575,0.213225365
576,0.199848845
577,0.171605663
578,0.165603532
579,0.390913759
580,0.514441232
581,0.427779373
582,0.16266828
583,0.163622727
584,0.163622727
585,0.139172064
586,0.141188116
587,0.150641899
588,0.153704725
589,0.161254516
590,0.167641146
591,0.175573501
592,0.175573501
593,0.179010923
594,0.186139523
595,0.195929505
596,0.196674437
597,0.193354485
598,0.188003677
599,0.198722742
600,0.208131468
601,0.219739264
602,0.219739264
603,0.199064561
604,0.169892617
605,0.173303524
606,0.202618998
607,0.469335268
608,0.469335268
609,0.140814487
610,0.128754842
611,0.15058805
612,0.150909996
613,0.159690001
614,0.157705893
615,0.143185654
616,0.146542385
617,0.160926132
618,0.173717508
619,0.177922661
620,0.177922661
621,0.175573501
622,0.181073196
623,0.188354423
624,0.188354423
625,0.18074302
626,0.187167968
627,0.203501039
628,0.214292155
629,0.222974464
630,0.222974464
631,0.206884647
632,0.188040431
633,0.159659187
634,0.20433364
635,0.432109615
636,0.477337467
637,0.323348934
638,0.160930871
639,0.168726131
640,0.15253556
641,0.153556515
642,0.146053861
643,0.147386485
644,0.149344677
645,0.159738019
646,0.16712652
647,0.175573501
648,0.175573501
649,0.186370575
650,0.195224863
651,0.203270364
652,0.205250171
653,0.204949796
654,0.204138288
655,0.218926403
656,0.238731709
657,0.244285585
658,0.24096431
659,0.175573501
660,0.145988047
661,0.190644811
662,0.257724334
663,0.448951699
664,0.448951699
665,0.153486076
666,0.170886795
667,0.172171664
668,0.185977304
669,0.181939119
670,0.164287024
671,0.151072682
672,0.14821571
673,0.15959432
674,0.165628109
675,0.172171178
676,0.175573501
677,0.196013522
678,0.202801602
679,0.203140379
680,0.195548654
681,0.177455966
682,0.186414683
683,0.200329444
684,0.207407194
685,0.20984916
686,0.208265132
687,0.171787045
688,0.161635964
689,0.292755651
690,0.470544221
691,0.492044534
692,0.331059968
693,0.189064712
694,0.189064712
695,0.148301589
696,0.152879718
697,0.14393947
698,0.131459794
699,0.158117873
700,0.161924713
701,0.167863052
702,0.171169364
703,0.175573501
704,0.175573501
705,0.175573501
706,0.180761946
707,0.181739716
708,0.179911275
709,0.195568894
710,0.20575971
711,0.219876132
712,0.226257093
713,0.226354624
714,0.219817143
715,0.191603923
716,0.172259865
717,0.300893611
718,0.465734063
719,0.476608995
720,0.201870966
721,0.171499118
722,0.160675141
723,0.176525645
724,0.176525645
725,0.156331237
726,0.14498869
727,0.156882294
728,0.162346503
729,0.175573501
730,0.175573501
731,0.175777206
732,0.18120027
733,0.194272695
734,0.195120398
735,0.194421396
736,0.193885824
737,0.19624626
738,0.204310394
739,0.229448328
740,0.229448328
741,0.200747109
742,0.1722345
743,0.160461466
744,0.213107008
745,0.507401292
746,0.52613539
747,0.247549413
748,0.150860557
749,0.161593303
750,0.133858896
751,0.136317255
752,0.136317255
753,0.130264954
754,0.146535392
755,0.167837079
756,0.173231703
757,0.175573501
758,0.175573501
759,0.175595589
760,0.182859969
761,0.192102119
762,0.195396388
763,0.20206337
764,0.204947274
765,0.219853791
766,0.22502167
767,0.225661459
768,0.224231903
769,0.205197229
770,0.173337746
771,0.181776729
772,0.240535652
773,0.558904499
774,0.558904499
775,0.173887224
776,0.17243186
777,0.165987047
778,0.138081679
779,0.155071073
780,0.155071073
781,0.142399549
782,0.153362712
783,0.164863155
784,0.173613516
785,0.175573501
786,0.186238493
787,0.212374686
788,0.218095124
789,0.218507264
790,0.213157889
791,0.193438057
792,0.194703415
793,0.213709695
794,0.213709695
795,0.197404509
796,0.170254426
797,0.129680255
798,0.160326525
799,0.344469216
800,0.535359655
801,0.539226266
802,0.242534052
803,0.147144346
804,0.142435105
805,0.141331082
806,0.131215985
807,0.107512389
808,0.104779658
809,0.128939191
810,0.152908442
811,0.175573501
812,0.175573501
813,0.181229817
814,0.195081173
815,0.202514494
816,0.201064502
817,0.185726779
818,0.184353314
819,0.203575401
820,0.216277104
821,0.229059801
822,0.229059801
823,0.1822303
824,0.158085486
825,0.218560262
826,0.355111838
827,0.591655355
828,0.591655355
829,0.173977466
830,0.173977466
831,0.159799604
832,0.144952763
833,0.146214818
834,0.143873379
835,0.147670617
836,0.1518219
837,0.169528262
838,0.175573501
839,0.175573501
840,0.175573501
841,0.179357513
842,0.183390962
843,0.194532156
844,0.201888595
845,0.212492418
846,0.220892673
847,0.241690896
848,0.250716784
849,0.24986177
850,0.222277137
851,0.174039313
852,0.163109409
853,0.25653129
854,0.409839556
855,0.513852449
856,0.46536621
857,0.178338159
858,0.175573501
859,0.146329732
860,0.157879517
861,0.154756826
862,0.132200298
863,0.134841281
864,0.140072054
865,0.170266885
866,0.175573501
867,0.17564301
868,0.17564301
869,0.189178316
870,0.201316145
871,0.208715713
872,0.208715713
873,0.207613389
874,0.212166956
875,0.229458969
876,0.234942375
877,0.226788008
878,0.18316927
879,0.160734386
880,0.191673227
881,0.47738943
882,0.608078803
883,0.571786198
884,0.135342502
885,0.14704736
886,0.144106215
887,0.11944582
888,0.129542264
889,0.130271923
890,0.141821933
891,0.169221793
892,0.173423048
893,0.175573501
894,0.175573501
895,0.175573501
896,0.187548468
897,0.208978616
898,0.213303376
899,0.2142105
900,0.216577214
901,0.243151149
902,0.249417824
903,0.249213127
904,0.235964191
905,0.172630123
906,0.160745594
907,0.258701052
908,0.457039599
909,0.571041923
910,0.519715692
911,0.147937427
912,0.147937427
913,0.124909351
914,0.124909351
915,0.109372012
916,0.11029473
917,0.124818841
918,0.138649153
919,0.172490764
920,0.175573501
921,0.175573501
922,0.175573501
923,0.182171765
924,0.1881241
925,0.197037742
926,0.198964574
927,0.207423177
928,0.217098365
929,0.237289701
930,0.237289701
931,0.189167525
932,0.179807752
933,0.17786585
934,0.243365919
935,0.635827231
936,0.67124821
937,0.444384932
938,0.128040195
939,0.12871203
940,0.118651509
941,0.139846951
942,0.139846951
943,0.121567774
944,0.125966684
945,0.140055966
946,0.160377443
947,0.175573501
948,0.175573501
949,0.175576547
950,0.188155993
951,0.205375708
952,0.205677195
953,0.199786454
954,0.19899112
955,0.228897826
956,0.228897826
957,0.22149418
958,0.204802709
959,0.183822839
960,0.162384681
961,0.255642612
962,0.486900639
963,0.580500514
964,0.50064237
965,0.195459054
966,0.174279136
967,0.152679199
968,0.122933862
969,0.117372616
970,0.116597921
971,0.130814138
972,0.153453864
973,0.174881701
974,0.175389105
975,0.175573501
976,0.175573501
977,0.18966298
978,0.18966298
979,0.182682772
980,0.183144544
981,0.200891833
982,0.219536704
983,0.244528719
984,0.244528719
985,0.227868224
986,0.199857681
987,0.16006664
988,0.195372489
989,0.453825121
990,0.631489609
991,0.610777829
992,0.177613048
993,0.133038482
994,0.147513258
995,0.148024211
996,0.138416752
997,0.136749328
998,0.135573045
999,0.149934611
1000,0.163180928
1001,0.175573501
1002,0.175573501
1003,0.17716104
1004,0.184746551
1005,0.194469968
1006,0.196534994
1007,0.197780984
1008,0.202442424
1009,0.216827285
1010,0.226537809
1011,0.231148018
1012,0.230898327
1013,0.181533025
1014,0.174405257
1015,0.203954166
1016,0.368632238
1017,0.582912831
1018,0.582912831
1019,0.137753923
1020,0.137753923
1021,0.131441919
1022,0.129136412
1023,0.126825829
1024,0.105302475
1025,0.117780598
1026,0.129046592
1027,0.166569215
1028,0.175573501
1029,0.178876702
1030,0.178876702
1031,0.175573501
1032,0.182592361
1033,0.190694242
1034,0.193757205
1035,0.207441223
1036,0.212315863
1037,0.214869752
1038,0.214869752
1039,0.207992541
1040,0.182165829
1041,0.18556613
1042,0.236785169
1043,0.622700546
1044,0.622700546
1045,0.244730441
1046,0.122270811
1047,0.149201869
1048,0.149201869
1049,0.121520593
1050,0.127204475
1051,0.126519635
1052,0.13721672
1053,0.178039634
1054,0.183042848
1055,0.183544833
1056,0.17445748
1057,0.191326154
1058,0.198494837
1059,0.206151099
1060,0.206711767
1061,0.207846057
1062,0.211340965
1063,0.22273744
1064,0.224132924
1065,0.222178134
1066,0.207771567
1067,0.158842939
1068,0.146753134
1069,0.317915049
1070,0.553627047
1071,0.593913782
1072,0.401525682
1073,0.157457427
1074,0.140175387
1075,0.121727246
1076,0.121727246
1077,0.119576722
1078,0.127855163
1079,0.150513158
1080,0.158773918
1081,0.175573501
1082,0.175573501
1083,0.175573501
1084,0.175573501
1085,0.175573501
1086,0.175573501
1087,0.175573501
1088,0.180938155
1089,0.204006336
1090,0.215822457
1091,0.232853539
1092,0.232853539
1093,0.211458686
1094,0.192028521
1095,0.186872905
1096,0.251073863
1097,0.600183419
1098,0.629524339
1099,0.325791031
1100,0.153293385
1101,0.159717275
1102,0.142564324
1103,0.140984364
1104,0.140807711
1105,0.127265002
1106,0.116102704
1107,0.145582288
1108,0.175573501
1109,0.210038007
1110,0.210038007
1111,0.202544667
1112,0.216078358
1113,0.242381003
1114,0.242381003
1115,0.27316038
1116,0.403169073
1117,0.531572216
1118,0.530250363
1119,0.165027502
1120,0.167537653
1121,0.112290699
1122,0.102415605
1123,0.118780114
1124,0.134059311
1125,0.185322748
1126,0.207827831
1127,0.229616563
1128,0.23185614
1129,0.234331742
1130,0.234136329
1131,0.227921148
1132,0.216863889
1133,0.185221679
1134,0.172143373
1135,0.15572297
1136,0.146354462
1137,0.133326478
1138,0.137658704
1139,0.157778081
1140,0.171484914
1141,0.199984101
1142,0.214284202
1143,0.253597479
1144,0.276813384
1145,0.295255426
1146,0.341643025
1147,0.600482912
1148,0.600482912
1149,0.194055343
1150,0.194055343
1151,0.188686764
1152,0.165186489
1153,0.168509666
1154,0.166019927
1155,0.166682557
1156,0.174684524
1157,0.175573501
1158,0.164216671
1159,0.165510956
1160,0.172166119
1161,0.175573501
1162,0.175573501
1163,0.203165667
1164,0.220300088
1165,0.228957567
1166,0.228957567
1167,0.194469665
1168,0.18120881
1169,0.189322586
1170,0.196796298
1171,0.19935299
1172,0.198837337
1173,0.168784267
1174,0.146188956
1175,0.191414449
1176,0.360519046
1177,0.611276629
1178,0.611276629
1179,0.208974536
1180,0.208974536
1181,0.142797776
1182,0.126341503
1183,0.120576442
1184,0.11640472
1185,0.121053854
1186,0.125428144
1187,0.145997734
1188,0.155871341
1189,0.175573501
1190,0.175573501
1191,0.175573501
1192,0.175573501
1193,0.186901767
1194,0.19091878
1195,0.206747147
1196,0.219930204
1197,0.257903417
1198,0.28031651
1199,0.3700301
1200,0.650207162
1201,1.180997728
1202,1.180997728
1203,0.2884785
1204,0.227712121
1205,0.186025088
1206,0.16936494
1207,0.052262656
1208,0.024420006
1209,0.008328524
1210,0.025814052
1211,0.097223102
1212,0.117725194
1213,0.139044892
1214,0.163690873
1215,0.175573501
1216,0.175573501
1217,0.175573501
1218,0.175573501
1219,0.175573501
1220,0.175573501
1221,0.177737778
1222,0.19057313
1223,0.230839455
1224,0.244770715
1225,0.245246561
1226,0.236537743
1227,0.196250996
1228,0.220216898
1229,0.347742756
1230,0.543000437
1231,0.613665875
1232,0.412657988
1233,0.201307748
1234,0.1729884
1235,0.172269266
1236,0.172269266
1237,0.157102281
1238,0.147502218
1239,0.149625191
1240,0.152462482
1241,0.169664397
1242,0.170796862
1243,0.175573501
1244,0.175573501
1245,0.204191253
1246,0.216129112
1247,0.215858768
1248,0.200270009
1249,0.224610636
1250,0.22857149
1251,0.229883208
1252,0.229883208
1253,0.180230126
1254,0.176011473
1255,0.209889979
1256,0.349793917
1257,0.505464418
1258,0.48674767
1259,0.15503716
1260,0.160932305
1261,0.169625336
1262,0.159753609
1263,0.142548683
1264,0.141974113
1265,0.151564808
1266,0.168806658
1267,0.184960245
1268,0.184973633
1269,0.177225553
1270,0.18045105
1271,0.192031473
1272,0.192031473
1273,0.185652227
1274,0.193964293
1275,0.216285941
1276,0.216285941
1277,0.21351916
1278,0.201852421
1279,0.159978236
1280,0.157988243
1281,0.275867482
1282,0.497529051
1283,0.55543581
1284,0.435812549
1285,0.145810216
1286,0.138747168
1287,0.133756755
1288,0.119081865
1289,0.118293088
1290,0.118092802
1291,0.134998919
1292,0.158090757
1293,0.176387395
1294,0.176407792
1295,0.175573501
1296,0.185138281
1297,0.206040553
1298,0.210209156
1299,0.209289594
1300,0.207548482
1301,0.206889654
1302,0.216907225
1303,0.228505663
1304,0.228505663
1305,0.201422772
1306,0.175573501
1307,0.141395789
1308,0.192051645
1309,0.48951608
1310,0.531893745
1311,0.35435838
1312,0.131727426
1313,0.150595735
1314,0.130962693
1315,0.13865465
1316,0.145954723
1317,0.157598572
1318,0.162722202
1319,0.170590787
1320,0.17364203
1321,0.175573501
1322,0.175573501
1323,0.188500694
1324,0.199493684
1325,0.210257025
1326,0.2140851
1327,0.225227485
1328,0.238288295
1329,0.248399426
1330,0.248761789
1331,0.244535349
1332,0.202295574
1333,0.159860522
1334,0.168136916
1335,0.335963018
1336,0.512229314
1337,0.511197169
1338,0.234415618
1339,0.156195678
1340,0.156195678
1341,0.151478171
1342,0.164650887
1343,0.165605114
1344,0.154624691
1345,0.152559465
1346,0.160116268
1347,0.175573501
1348,0.175573501
1349,0.175573501
1350,0.175573501
1351,0.181399407
1352,0.187990765
1353,0.197494687
1354,0.206602131
1355,0.22772501
1356,0.240992731
1357,0.24506755
1358,0.236775267
1359,0.194483136
1360,0.174567551
1361,0.320054912
1362,0.521674416
1363,0.549517794
1364,0.359639116
1365,0.16743959
1366,0.16743959
1367,0.152839306
1368,0.153051772
1369,0.150678464
1370,0.144533549
1371,0.14169387
1372,0.14935354
1373,0.175573501
1374,0.175573501
1375,0.175573501
1376,0.175573501
1377,0.196502042
1378,0.20091469
1379,0.201150822
1380,0.195954879
1381,0.212712456
1382,0.221125956
1383,0.221515637
1384,0.216493442
1385,0.177845201
1386,0.166387582
1387,0.218070553
1388,0.318418543
1389,0.517024561
1390,0.517024561
1391,0.160486498
1392,0.164020053
1393,0.16077114
1394,0.16077114
1395,0.139568955
1396,0.131899099
1397,0.119218252
1398,0.132386775
1399,0.169437141
1400,0.175573501
1401,0.175573501
1402,0.184236274
1403,0.198482373
1404,0.198482373
1405,0.191094205
1406,0.181542083
1407,0.183225935
1408,0.190786091
1409,0.213830809
1410,0.213830809
1411,0.196986357
1412,0.176186663
1413,0.18055142
1414,0.230203537
1415,0.515223196
1416,0.529029198
1417,0.311526864
1418,0.167908022
1419,0.16970578
1420,0.121063233
1421,0.115483252
1422,0.118861647
1423,0.124651785
1424,0.13693821
1425,0.157012666
1426,0.168608902
1427,0.175573501
1428,0.175573501
1429,0.175573501
1430,0.175573501
1431,0.17919289
1432,0.182333373
1433,0.195015219
1434,0.212791964
1435,0.253949841
1436,0.255389386
1437,0.251790498
1438,0.228437353
1439,0.186740835
1440,0.17595374
1441,0.294675013
1442,0.489933576
1443,0.521738762
1444,0.357267088
1445,0.135760232
1446,0.163130774
1447,0.159578142
1448,0.152533709
1449,0.152012903
1450,0.151423038
1451,0.151516853
1452,0.160734371
1453,0.175573501
1454,0.175573501
1455,0.175573501
1456,0.175573501
1457,0.186526278
1458,0.191843744
1459,0.193567882
1460,0.193567882
1461,0.204426337
1462,0.215193369
1463,0.22528442
1464,0.22528442
1465,0.19334324
1466,0.186771527
1467,0.201263915
1468,0.305686418
1469,0.530810934
1470,0.530810934
1471,0.15400896
1472,0.157612333
1473,0.138854413
1474,0.157287829
1475,0.163480353
1476,0.156749779
1477,0.132260598
1478,0.145733762
1479,0.168519144
1480,0.175573501
1481,0.179902533
1482,0.179902533
1483,0.175573501
1484,0.181861649
1485,0.184785427
1486,0.184785427
1487,0.196398694
1488,0.212473357
1489,0.225591492
1490,0.226149067
1491,0.223358867
1492,0.200389993
1493,0.177858193
1494,0.215423913
1495,0.503869076
1496,0.520851526
1497,0.290186378
1498,0.13864796
1499,0.141238738
1500,0.150200256
1501,0.148156812
1502,0.149567909
1503,0.14554527
1504,0.132937735
1505,0.168445609
1506,0.179069257
1507,0.182867589
1508,0.18194098
1509,0.188393898
1510,0.19766073
1511,0.200632404
1512,0.200632404
1513,0.199878907
1514,0.196405911
1515,0.210486943
1516,0.219768068
1517,0.220712158
1518,0.215479542
1519,0.16691797
1520,0.148782743
1521,0.225722614
1522,0.389236321
1523,0.518251561
1524,0.49118018
1525,0.141082572
1526,0.147367565
1527,0.150382375
1528,0.16130936
1529,0.159343008
1530,0.156969552
1531,0.160932321
1532,0.162116603
1533,0.174370003
1534,0.175573501
1535,0.175573501
1536,0.175573501
1537,0.175573501
1538,0.175887981
1539,0.181619697
1540,0.185998052
1541,0.208662692
1542,0.222015414
1543,0.244920805
1544,0.24896646
1545,0.248489963
1546,0.234325734
1547,0.179893765
1548,0.202688781
1549,0.375266194
1550,0.495278613
1551,0.409265079
1552,0.122486912
1553,0.162872986
1554,0.150785328
1555,0.166175447
1556,0.167422436
1557,0.147473804
1558,0.144687413
1559,0.160526311
1560,0.167532272
1561,0.175573501
1562,0.175573501
1563,0.175573501
1564,0.175573501
1565,0.19511703
1566,0.1971244
1567,0.195234425
1568,0.187380363
1569,0.207686244
1570,0.213070645
1571,0.219107546
1572,0.219107546
1573,0.184706676
1574,0.171949813
1575,0.216159885
1576,0.347318661
1577,0.478327432
1578,0.427509475
1579,0.146846695
1580,0.146846695
1581,0.175989816
1582,0.175989816
1583,0.138675051
1584,0.138675051
1585,0.138453965
1586,0.152571631
1587,0.175573501
1588,0.175573501
1589,0.18991114
1590,0.202245147
1591,0.219726086
1592,0.219726086
1593,0.212585442
1594,0.199227243
1595,0.194881709
1596,0.203482843
1597,0.219550054
1598,0.219550054
1599,0.155860819
1600,0.144308095
1601,0.202062629
1602,0.281744673
1603,0.465458321
1604,0.455854087
1605,0.162526725
1606,0.195573617
1607,0.175573501
1608,0.156503579
1609,0.157890653
1610,0.157669966
1611,0.142512914
1612,0.151829831
1613,0.164894414
1614,0.169981864
1615,0.174855134
1616,0.179089729
1617,0.193818752
1618,0.1942505
1619,0.191548127
1620,0.187380495
1621,0.18065028
1622,0.196615614
1623,0.222388872
1624,0.222388872
1625,0.211907961
1626,0.186537573
1627,0.125857823
1628,0.175573501
1629,0.424424951
1630,0.56408106
1631,0.481988568
1632,0.165809241
1633,0.159920981
1634,0.167086645
1635,0.17261493
1636,0.162065136
1637,0.154549794
1638,0.155320534
1639,0.163058215
1640,0.168979842
1641,0.175573501
1642,0.175573501
1643,0.175573501
1644,0.178871719
1645,0.190350748
1646,0.190897783
1647,0.189893959
1648,0.187445507
1649,0.189184344
1650,0.209213763
1651,0.220760454
1652,0.220570618
1653,0.189521863
1654,0.169125156
1655,0.192656078
1656,0.271369069
1657,0.499433363
1658,0.499433363
1659,0.111137637
1660,0.132257123
1661,0.14338369
1662,0.16176459
1663,0.160642034
1664,0.138004698
1665,0.134350124
1666,0.139944981
1667,0.170796296
1668,0.180827077
1669,0.181877279
1670,0.18014524
1671,0.175573501
1672,0.180740073
1673,0.180120825
1674,0.178543877
1675,0.187064327
1676,0.195241645
1677,0.214506398
1678,0.224951899
1679,0.228936708
1680,0.228282211
1681,0.18468913
1682,0.176676282
1683,0.232182142
1684,0.370559543
1685,0.438835507
1686,0.384777695
1687,0.173977418
1688,0.170816593
1689,0.163093458
1690,0.168534648
1691,0.167187195
1692,0.158692062
1693,0.176572107
1694,0.176789936
1695,0.17483641
1696,0.17507357
1697,0.192182782
1698,0.20312899
1699,0.222813353
1700,0.228515128
1701,0.22971475
1702,0.228245873
1703,0.225133286
1704,0.241330242
1705,0.395596367
1706,0.43999358
1707,0.374385026
1708,0.128411018
1709,0.187103379
1710,0.187103379
1711,0.175573501
1712,0.175573501
1713,0.166202223
1714,0.167049331
1715,0.177937209
1716,0.181236447
1717,0.192473386
1718,0.199049952
1719,0.206441861
1720,0.207143704
1721,0.202494392
1722,0.194370724
1723,0.183646922
1724,0.176072575
1725,0.175573501
1726,0.171549764
1727,0.158907707
1728,0.15120082
1729,0.166668352
1730,0.176918514
1731,0.195253162
1732,0.19648768
1733,0.192570604
1734,0.175214144
1735,0.165727023
1736,0.227102341
1737,0.38985262
1738,0.38985262
1739,0.168883913
1740,0.211271406
1741,0.218187899
1742,0.186102999
1743,0.177973541
1744,0.175573501
1745,0.146439472
1746,0.135846966
1747,0.133337478
1748,0.135662888
1749,0.143157393
1750,0.152926243
1751,0.175573501
1752,0.184248926
1753,0.220492328
1754,0.223590833
1755,0.220202355
1756,0.203292769
1757,0.19134581
1758,0.192956761
1759,0.198108356
1760,0.198108356
1761,0.191673052
1762,0.162984953
1763,0.149287514
1764,0.164864605
1765,0.438855963
1766,0.54206284
1767,0.475507486
1768,0.211560122
1769,0.173256243
1770,0.172778733
1771,0.158519488
1772,0.158519488
1773,0.144143219
1774,0.14670312
1775,0.1490138
1776,0.153291339
1777,0.165268368
1778,0.175573501
1779,0.175573501
1780,0.180606174
1781,0.199480541
1782,0.200213517
1783,0.195502906
1784,0.19378983
1785,0.210971708
1786,0.218410149
1787,0.225847619
1788,0.225847619
1789,0.203416492
1790,0.175014107
1791,0.159989119
1792,0.22163198
1793,0.509783142
1794,0.509783142
1795,0.185616107
1796,0.185616107
1797,0.176431952
1798,0.176297812
1799,0.192080861
1800,0.186914977
1801,0.154628471
1802,0.160005886
1803,0.164621274
1804,0.171942319
1805,0.175768139
1806,0.175768139
1807,0.182328443
1808,0.19381566
1809,0.205935995
1810,0.206254273
1811,0.213661853
1812,0.223377882
1813,0.230084666
1814,0.230071636
1815,0.201299509
1816,0.175387213
1817,0.135378048
1818,0.164348799
1819,0.37933985
1820,0.502291474
1821,0.442813509
1822,0.155175399
1823,0.165346357
1824,0.164037584
1825,0.163311473
1826,0.142349423
1827,0.127480183
1828,0.122242243
1829,0.148722216
1830,0.164811571
1831,0.175573501
1832,0.175573501
1833,0.189282513
1834,0.200361963
1835,0.206564257
1836,0.206564257
1837,0.198128102
1838,0.192826309
1839,0.198727103
1840,0.205369979
1841,0.206481598
1842,0.204349063
1843,0.155215995
1844,0.142694202
1845,0.215063981
1846,0.399890133
1847,0.643820946
1848,0.643820946
1849,0.185739358
1850,0.146017468
1851,0.132045845
1852,0.108814409
1853,0.09899668
1854,0.095177221
1855,0.110744291
1856,0.123909996
1857,0.154796005
1858,0.169900465
1859,0.182817732
1860,0.192040017
1861,0.205844797
1862,0.20633548
1863,0.204613052
1864,0.202340892
1865,0.211332963
1866,0.220091932
1867,0.220394565
1868,0.213795712
1869,0.175573501
1870,0.158723532
1871,0.162089785
1872,0.227687422
1873,0.58705103
1874,0.613051817
1875,0.42592258
1876,0.171724759
1877,0.201632136
1878,0.201632136
1879,0.184889546
1880,0.194400689
1881,0.181744949
1882,0.151873715
1883,0.155950025
1884,0.155950025
1885,0.16215783
1886,0.168600618
1887,0.174064916
1888,0.177633836
1889,0.185658575
1890,0.188018607
1891,0.191329042
1892,0.193389624
1893,0.198788339
1894,0.198788339
1895,0.191349979
1896,0.17360216
1897,0.119650043
1898,0.150904749
1899,0.383877506
1900,0.513693187
1901,0.479384803
1902,0.188225192
1903,0.178004218
1904,0.177990544
1905,0.199105323
1906,0.199105323
1907,0.180445784
1908,0.170369645
1909,0.164299176
1910,0.167701629
1911,0.185240795
1912,0.185240795
1913,0.180632129
1914,0.172303222
1915,0.180759115
1916,0.180759115
1917,0.178643894
1918,0.177101644
1919,0.183862464
1920,0.183862464
1921,0.179181384
1922,0.170632725
1923,0.141414044
1924,0.137313671
1925,0.197190169
1926,0.344780205
1927,0.477036674
1928,0.465376578
1929,0.179269438
1930,0.197950861
1931,0.19740593
1932,0.167860485
1933,0.140152211
1934,0.138755191
1935,0.127584654
1936,0.144573431
1937,0.162918613
1938,0.164087406
1939,0.1715687
1940,0.183486829
1941,0.199407434
1942,0.199407434
1943,0.19208017
1944,0.181015083
1945,0.187866072
1946,0.196078026
1947,0.210819874
1948,0.210819874
1949,0.189589858
1950,0.154239654
1951,0.166997392
1952,0.227792148
1953,0.533482691
1954,0.533482691
1955,0.192621687
1956,0.192621687
1957,0.14496886
1958,0.141353847
1959,0.126675027
1960,0.123690868
1961,0.124702471
1962,0.139263623
1963,0.155038878
1964,0.162888319
1965,0.180693656
1966,0.194249513
1967,0.203058577
1968,0.203771491
1969,0.203636064
1970,0.202099728
1971,0.181615782
1972,0.190770868
1973,0.199317943
1974,0.199317943
1975,0.175573501
1976,0.144446322
1977,0.137164305
1978,0.164889676
1979,0.379812628
1980,0.50304543
1981,0.484556351
1982,0.175573501
1983,0.199324553
1984,0.202055275
1985,0.187877471
1986,0.181972238
1987,0.183752099
1988,0.178717578
1989,0.172629732
1990,0.176749381
1991,0.182685535
1992,0.183750134
1993,0.184740853
1994,0.184414736
1995,0.175832193
1996,0.175729307
1997,0.175613688
1998,0.173979582
1999,0.174920142
2000,0.175752573
2001,0.175240571
2002,0.168709027
2003,0.113555007
2004,0.134142995
2005,0.214289863
2006,0.364732399
2007,0.588579141
2008,0.588579141
2009,0.184875121
2010,0.161921164
2011,0.141146719
2012,0.137554057
2013,0.129479475
2014,0.103634828
2015,0.109335938
2016,0.118387433
2017,0.158080305
2018,0.171781874
2019,0.177266463
2020,0.178694967
2021,0.205585987
2022,0.212927467
2023,0.212334601
2024,0.211304091
2025,0.206203201
2026,0.208572032
2027,0.215354263
2028,0.217853839
2029,0.20845972
2030,0.171491944
2031,0.164667207
2032,0.223029916
2033,0.576844632
2034,0.576844632
2035,0.172843747
2036,0.174943924
2037,0.186533627
2038,0.186533627
2039,0.163893571
2040,0.154564548
2041,0.150510041
2042,0.15559295
2043,0.18238984
2044,0.182530388
2045,0.179994295
2046,0.16778991
2047,0.178856843
2048,0.185083207
2049,0.18645682
2050,0.186012165
2051,0.186915853
2052,0.189198255
2053,0.19992807
2054,0.19992807
2055,0.179815344
2056,0.147901286
2057,0.133723283
2058,0.204267895
2059,0.583095611
2060,0.609480722
2061,0.278517478
2062,0.184418448
2063,0.197682264
2064,0.15081488
2065,0.130250838
2066,0.130250838
2067,0.130757093
2068,0.152127566
2069,0.177595619
2070,0.177893694
2071,0.174492385
2072,0.178418898
2073,0.192249968
2074,0.192249968
2075,0.187538213
2076,0.17989318
2077,0.178664498
2078,0.183308349
2079,0.20228961
2080,0.202921211
2081,0.203403932
2082,0.190243705
2083,0.150375298
2084,0.125097094
2085,0.334097538
2086,0.496182729
2087,0.500142044
2088,0.205489507
2089,0.175714447
2090,0.17011755
2091,0.151417052
2092,0.151417052
2093,0.141062605
2094,0.144607036
2095,0.151745716
2096,0.159266245
2097,0.182788124
2098,0.196074907
2099,0.223916827
2100,0.234079482
2101,0.24961537
2102,0.253591174
2103,0.270399318
2104,0.285289943
2105,0.527335459
2106,0.613082503
2107,0.532337112
2108,0.141685001
2109,0.121717124
2110,0.121717124
2111,0.106983231
2112,0.128410988
2113,0.150384755
2114,0.169696838
2115,0.215568138
2116,0.229632676
2117,0.234863035
2118,0.234863035
2119,0.227805696
2120,0.226441936
2121,0.220917539
2122,0.210707234
2123,0.18440528
2124,0.173271189
2125,0.153263779
2126,0.145758939
2127,0.140656777
2128,0.13789729
2129,0.1476807
2130,0.155638116
2131,0.177562404
2132,0.192120001
2133,0.223707854
2134,0.238290544
2135,0.24549617
2136,0.341034787
2137,0.533175189
2138,0.53175642
2139,0.202247483
2140,0.202247483
2141,0.192337598
2142,0.186471294
2143,0.185777324
2144,0.170824443
2145,0.168950807
2146,0.168950807
2147,0.163246155
2148,0.157437034
2149,0.142054662
2150,0.147518611
2151,0.175573501
2152,0.191172271
2153,0.209751304
2154,0.209751304
2155,0.206048537
2156,0.203921041
2157,0.178546223
2158,0.17233069
2159,0.194521287
2160,0.212847457
2161,0.22156807
2162,0.221384541
2163,0.160814716
2164,0.15580611
2165,0.235201838
2166,0.410764442
2167,0.542064297
2168,0.497704576
2169,0.183993005
2170,0.18263728
2171,0.139653434
2172,0.129361687
2173,0.129732946
2174,0.129635911
2175,0.137753496
2176,0.142260098
2177,0.1592638
2178,0.173801229
2179,0.175573501
2180,0.175573501
2181,0.178449328
2182,0.185533111
2183,0.189901696
2184,0.189901696
2185,0.222924
2186,0.240119866
2187,0.240395873
2188,0.239548279
2189,0.196078992
2190,0.180428267
2191,0.183579347
2192,0.228356671
2193,0.492109094
2194,0.492109094
2195,0.157325725
2196,0.116136549
2197,0.149340965
2198,0.149340965
2199,0.130619808
2200,0.134891721
2201,0.137198359
2202,0.142806977
2203,0.163013212
2204,0.173184804
2205,0.175573501
2206,0.175573501
2207,0.175573501
2208,0.182547122
2209,0.194375822
2210,0.196550299
2211,0.196988905
2212,0.203579945
2213,0.235110416
2214,0.242649628
2215,0.241852727
2216,0.226462148
2217,0.17262016
2218,0.165003583
2219,0.258341136
2220,0.399990977
2221,0.496460818
2222,0.468383339
2223,0.148180992
2224,0.151416299
2225,0.14823578
2226,0.14823578
2227,0.145802402
2228,0.141436496
2229,0.138226171
2230,0.1534324
2231,0.181779007
2232,0.182740839
2233,0.179224488
2234,0.172679033
2235,0.177617508
2236,0.179205465
2237,0.184558465
2238,0.188174328
2239,0.201249292
2240,0.212267327
2241,0.237096536
2242,0.237096536
2243,0.213316903
2244,0.194532026
2245,0.198562406
2246,0.265414082
2247,0.480030396
2248,0.480030396
2249,0.124622035
2250,0.165166132
2251,0.166074139
2252,0.123087901
2253,0.137201845
2254,0.137201845
2255,0.120809181
2256,0.140717362
2257,0.169061912
2258,0.183246379
2259,0.191307981
2260,0.192298812
2261,0.200806593
2262,0.217256292
2263,0.233714872
2264,0.233714872
2265,0.293313403
2266,0.478909015
2267,0.496092754
2268,0.332700791
2269,0.161056668
2270,0.161056668
2271,0.139295979
2272,0.154793878
2273,0.159638574
2274,0.147393628
2275,0.149449105
2276,0.168404914
2277,0.197129418
2278,0.205615625
2279,0.209264165
2280,0.209264165
2281,0.198976702
2282,0.193266722
2283,0.180043703
2284,0.171409931
2285,0.161641447
2286,0.155634973
2287,0.148325591
2288,0.160647457
2289,0.177242626
2290,0.183303063
2291,0.208594849
2292,0.227364941
2293,0.250436103
2294,0.252700245
2295,0.251934363
2296,0.272810636
2297,0.500029366
2298,0.507243854
2299,0.281337118
2300,0.129771502
2301,0.161638072
2302,0.151157695
2303,0.154455309
2304,0.154455309
2305,0.14567375
2306,0.139629502
2307,0.169584509
2308,0.180525151
2309,0.181726768
2310,0.179012285
2311,0.175573501
2312,0.175573501
2313,0.175573501
2314,0.188768631
2315,0.201072589
2316,0.201072589
2317,0.19171298
2318,0.188844352
2319,0.202617436
2320,0.214669118
2321,0.217382504
2322,0.214981591
2323,0.165239102
2324,0.15453198
2325,0.239725051
2326,0.378729456
2327,0.492747422
2328,0.468050086
2329,0.158680796
2330,0.15167137
2331,0.17030639
2332,0.182911583
2333,0.182016263
2334,0.165726832
2335,0.149155965
2336,0.149664923
2337,0.172696328
2338,0.175573501
2339,0.175573501
2340,0.175573501
2341,0.175573501
2342,0.175573501
2343,0.17663958
2344,0.17661231
2345,0.190016847
2346,0.209388487
2347,0.244462045
2348,0.257865982
2349,0.254416113
2350,0.218761049
2351,0.187930817
2352,0.197019222
2353,0.363404107
2354,0.455430162
2355,0.423483597
2356,0.132557543
2357,0.173675798
2358,0.173675798
2359,0.155141455
2360,0.159243134
2361,0.1552055
2362,0.142720577
2363,0.157958066
2364,0.165780322
2365,0.175573501
2366,0.175573501
2367,0.177227902
2368,0.185118459
2369,0.191422639
2370,0.191422639
2371,0.189176631
2372,0.185022018
2373,0.218630335
2374,0.228476436
2375,0.22783514
2376,0.222985092
2377,0.181245659
2378,0.166900638
2379,0.244522261
2380,0.390593421
2381,0.444550578
2382,0.363239576
2383,0.169254953
2384,0.170519928
2385,0.158791101
2386,0.159277423
2387,0.159263851
2388,0.158324625
2389,0.156683354
2390,0.150712945
2391,0.175573501
2392,0.175573501
2393,0.175573501
2394,0.178182431
2395,0.185684042
2396,0.186582493
2397,0.189747479
2398,0.197050083
2399,0.224586917
2400,0.236373457
2401,0.249891307
2402,0.249891307
2403,0.201598717
2404,0.176438344
2405,0.189936637
2406,0.244599448
2407,0.458143954
2408,0.458143954
2409,0.128564533
2410,0.167196452
2411,0.16828409
2412,0.154309482
2413,0.17569024
2414,0.17569024
2415,0.154281419
2416,0.153503478
2417,0.164525262
2418,0.175573501
2419,0.176912093
2420,0.175573501
2421,0.175573501
2422,0.175891303
2423,0.180888046
2424,0.181319468
2425,0.185126638
2426,0.197453611
2427,0.222920365
2428,0.223251506
2429,0.226083422
2430,0.201574883
2431,0.179101849
2432,0.177907159
2433,0.27373759
2434,0.428580031
2435,0.448571214
2436,0.29435817
2437,0.135916221
2438,0.151426446
2439,0.161932328
2440,0.15872529
2441,0.137027073
2442,0.139776386
2443,0.154183773
2444,0.167131523
2445,0.17703514
2446,0.17703514
2447,0.175573501
2448,0.182600483
2449,0.19149883
2450,0.194783885
2451,0.195282282
2452,0.190814592
2453,0.182355913
2454,0.197129452
2455,0.219641689
2456,0.219641689
2457,0.207888015
2458,0.186002974
2459,0.148592111
2460,0.170160943
2461,0.361428151
2462,0.445406831
2463,0.400900714
2464,0.154852242
2465,0.196962594
2466,0.17554749
2467,0.181395163
2468,0.176050242
2469,0.175573501
2470,0.175221781
2471,0.171646171
2472,0.168525673
2473,0.167856647
2474,0.170901031
2475,0.182178776
2476,0.186778875
2477,0.195385131
2478,0.196230438
2479,0.19609536
2480,0.192682552
2481,0.192304978
2482,0.203754438
2483,0.20916361
2484,0.208534949
2485,0.140950221
2486,0.131886891
2487,0.172494749
2488,0.264098036
2489,0.427047948
2490,0.427047948
2491,0.193146202
2492,0.193146202
2493,0.183229136
2494,0.200353679
2495,0.198798493
2496,0.17380268
2497,0.16151805
2498,0.163665775
2499,0.170297195
2500,0.174860938
2501,0.181030989
2502,0.185409632
2503,0.19932208
2504,0.203074413
2505,0.202973361
2506,0.198305014
2507,0.175573501
2508,0.16768576
2509,0.172560128
2510,0.178512622
2511,0.172443266
2512,0.124881815
2513,0.133721737
2514,0.167234104
2515,0.390148026
2516,0.415546336
2517,0.187646091
2518,0.188971267
2519,0.19771524
2520,0.19771524
2521,0.183277308
2522,0.181749281
2523,0.182776476
2524,0.175573501
2525,0.177705499
2526,0.177705499
2527,0.175573501
2528,0.175573501
2529,0.175573501
2530,0.175573501
2531,0.175573501
2532,0.175573501
2533,0.175573501
2534,0.170296782
2535,0.177223281
2536,0.181683492
2537,0.181701106
2538,0.175233994
2539,0.131897123
2540,0.124776655
2541,0.16585482
2542,0.223767865
2543,0.395605715
2544,0.395605715
2545,0.199205553
2546,0.201289364
2547,0.183363376
2548,0.183363376
2549,0.175573501
2550,0.175573501
2551,0.175573501
2552,0.175573501
2553,0.174998184
2554,0.172897453
2555,0.175286213
2556,0.176930621
2557,0.178939627
2558,0.179388026
2559,0.179181834
2560,0.177578574
2561,0.175573501
2562,0.166876721
2563,0.181564883
2564,0.184661845
2565,0.181096285
2566,0.167307932
2567,0.135424324
2568,0.146404743
2569,0.170137051
2570,0.233264174
2571,0.443995327
2572,0.443995327
2573,0.181419918
2574,0.181419918
2575,0.192175295
2576,0.187352031
2577,0.1733012
2578,0.1733012
2579,0.159281261
2580,0.157157813
2581,0.166060726
2582,0.168454355
2583,0.17307592
2584,0.176113832
2585,0.180153706
2586,0.180242963
2587,0.179220466
2588,0.176650222
2589,0.182055566
2590,0.189444379
2591,0.212568139
2592,0.2168715
2593,0.216980118
2594,0.212514592
2595,0.155927291
2596,0.143774065
2597,0.163257904
2598,0.234478895
2599,0.413580399
2600,0.413580399
2601,0.176679105
2602,0.179985334
2603,0.180417924
2604,0.171027517
2605,0.150647129
2606,0.150647129
2607,0.145374516
2608,0.146133757
2609,0.154901569
2610,0.160239886
2611,0.175573501
2612,0.175573501
2613,0.175573501
2614,0.178689324
2615,0.181923553
2616,0.181923553
2617,0.178192397
2618,0.186433366
2619,0.219266104
2620,0.228693657
2621,0.23322042
2622,0.221551783
2623,0.185703941
2624,0.170253603
2625,0.267234476
2626,0.466417075
2627,0.478592284
2628,0.229088682
2629,0.132444196
2630,0.144782544
2631,0.166052255
2632,0.16309103
2633,0.143141874
2634,0.141254646
2635,0.136906458
2636,0.156838151
2637,0.175573501
2638,0.175573501
2639,0.175573501
2640,0.175573501
2641,0.175573501
2642,0.175573501
2643,0.175573501
2644,0.175573501
2645,0.199356435
2646,0.208809014
2647,0.219917085
2648,0.219917085
2649,0.195794285
2650,0.1788343
2651,0.165468354
2652,0.16496058
2653,0.409507692
2654,0.409507692
2655,0.152155415
2656,0.175534193
2657,0.172518279
2658,0.15650652
2659,0.166060166
2660,0.166060166
2661,0.160476671
2662,0.160476671
2663,0.167294637
2664,0.175573501
2665,0.175573501
2666,0.175573501
2667,0.175573501
2668,0.175573501
2669,0.175573501
2670,0.175573501
2671,0.175573501
2672,0.175573501
2673,0.186838418
2674,0.194733764
2675,0.211457311
2676,0.211457311
2677,0.193202301
2678,0.176665644
2679,0.185868834
2680,0.221078275
2681,0.510669856
2682,0.539843688
2683,0.284492655
2684,0.148309744
2685,0.152516339
2686,0.163828141
2687,0.162282074
2688,0.150353279
2689,0.14478943
2690,0.133650723
2691,0.145570134
2692,0.171559773
2693,0.175573501
2694,0.175573501
2695,0.175573501
2696,0.175573501
2697,0.175573501
2698,0.175573501
2699,0.175573501
2700,0.175573501
2701,0.184000404
2702,0.190613822
2703,0.20208592
2704,0.201650186
2705,0.184388793
2706,0.1747797
2707,0.202822411
2708,0.324846013
2709,0.504823331
2710,0.504823331
2711,0.151712963
2712,0.155090512
2713,0.13544233
2714,0.146543383
2715,0.1418817
2716,0.139393536
2717,0.158348791
2718,0.15957186
2719,0.173614114
2720,0.175573501
2721,0.175573501
2722,0.175573501
2723,0.175573501
2724,0.175573501
2725,0.175573501
2726,0.175573501
2727,0.176504411
2728,0.188071973
2729,0.202587025
2730,0.205099179
2731,0.203950631
2732,0.189994082
2733,0.165918657
2734,0.196288739
2735,0.442806176
2736,0.527949486
2737,0.423783111
2738,0.157602863
2739,0.173912118
2740,0.165593303
2741,0.15336093
2742,0.15336093
2743,0.149125867
2744,0.136119993
2745,0.144968986
2746,0.165982167
2747,0.175573501
2748,0.175573501
2749,0.175573501
2750,0.175573501
2751,0.175573501
2752,0.175573501
2753,0.175573501
2754,0.175573501
2755,0.184296845
2756,0.186771414
2757,0.198556692
2758,0.199187347
2759,0.187884696
2760,0.172892265
2761,0.201142534
2762,0.319719155
2763,0.564720219
2764,0.564720219
2765,0.141873143
2766,0.157299864
2767,0.174089084
2768,0.170513572
2769,0.157176095
2770,0.157176095
2771,0.135808134
2772,0.122248451
2773,0.168414163
2774,0.175573501
2775,0.175573501
2776,0.175573501
2777,0.175573501
2778,0.175573501
2779,0.175573501
2780,0.175573501
2781,0.183373715
2782,0.184541723
2783,0.211246603
2784,0.212972777
2785,0.213019519
2786,0.199218393
2787,0.174540313
2788,0.198063603
2789,0.482294764
2790,0.592334392
2791,0.544562995
2792,0.182253204
2793,0.160264768
2794,0.152602746
2795,0.134625873
2796,0.134064916
2797,0.132846835
2798,0.134534411
2799,0.146236458
2800,0.161224659
2801,0.175573501
2802,0.175573501
2803,0.175573501
2804,0.175573501
2805,0.175573501
2806,0.175573501
2807,0.175573501
2808,0.175573501
2809,0.190530387
2810,0.196348899
2811,0.215429501
2812,0.215429501
2813,0.205790154
2814,0.180086646
2815,0.185070077
2816,0.255312512
2817,0.598872379
2818,0.598872379
2819,0.156186277
2820,0.13828155
2821,0.128722344
2822,0.153014395
2823,0.175384303
2824,0.175384303
2825,0.140671668
2826,0.139390752
2827,0.155082236
2828,0.175573501
2829,0.175573501
2830,0.175808144
2831,0.175573501
2832,0.175573501
2833,0.175573501
2834,0.175573501
2835,0.186399876
2836,0.197543453
2837,0.20942124
2838,0.209620043
2839,0.198909912
2840,0.182743422
2841,0.19609505
2842,0.262569362
2843,0.623845865
2844,0.728776393
2845,0.451858209
2846,0.138145149
2847,0.147911539
2848,0.164187323
2849,0.162801856
2850,0.131655621
2851,0.102003259
2852,0.087241746
2853,0.131809852
2854,0.163391535
2855,0.175573501
2856,0.175573501
2857,0.175573501
2858,0.175573501
2859,0.175573501
2860,0.175573501
2861,0.177939214
2862,0.180120656
2863,0.196616513
2864,0.215878066
2865,0.217345728
2866,0.193723331
2867,0.172690043
2868,0.185016888
2869,0.470603747
2870,0.639572197
2871,0.648786662
2872,0.190670911
2873,0.177423799
2874,0.176272113
2875,0.135511413
2876,0.13806602
2877,0.135997563
2878,0.110775571
2879,0.150736308
2880,0.166634301
2881,0.175573501
2882,0.175573501
2883,0.175573501
2884,0.175573501
2885,0.175573501
2886,0.175573501
2887,0.175573501
2888,0.175573501
2889,0.201221896
2890,0.218087896
2891,0.229109922
2892,0.228465174
2893,0.178862335
2894,0.160646632
2895,0.18957183
2896,0.279809194
2897,0.755292026
2898,0.755292026
2899,0.278988535
2900,0.171276773
2901,0.167188388
2902,0.15587922
2903,0.148265099
2904,0.146019069
2905,0.127574275
2906,0.098241527
2907,0.143086114
2908,0.169658806
2909,0.175573501
2910,0.175573501
2911,0.175573501
2912,0.175573501
2913,0.175573501
2914,0.175573501
2915,0.175573501
2916,0.175573501
2917,0.193187869
2918,0.19472885
2919,0.195098514
2920,0.186316963
2921,0.188705893
2922,0.223338752
2923,0.520126728
2924,0.709958471
2925,0.670992568
2926,0.18123799
2927,0.13692827
2928,0.124930084
2929,0.163528898
2930,0.163528898
2931,0.136766926
2932,0.121464931
2933,0.114031104
2934,0.137180817
2935,0.175573501
2936,0.175573501
2937,0.175573501
2938,0.175573501
2939,0.175573501
2940,0.175573501
2941,0.175573501
2942,0.175573501
2943,0.175573501
2944,0.177397676
2945,0.177768198
2946,0.180388031
2947,0.198770317
2948,0.289289528
2949,0.727957287
2950,0.74023912
2951,0.378072396
2952,0.133889504
2953,0.116512265
2954,0.127598868
2955,0.148785842
2956,0.148785842
2957,0.113636473
2958,0.12183534
2959,0.138066416
2960,0.169502852
2961,0.175573501
2962,0.175573501
2963,0.175573501
2964,0.175573501
2965,0.175573501
2966,0.175573501
2967,0.175573501
2968,0.175573501
2969,0.192507343
2970,0.193869793
2971,0.185619891
2972,0.165739927
2973,0.204402859
2974,0.25004286
2975,0.652684309
2976,0.703575018
2977,0.51781624
2978,0.138482713
2979,0.145158534
2980,0.160942681
2981,0.165005839
2982,0.146103939
2983,0.091205209
2984,0.084517514
2985,0.113748881
2986,0.159700833
2987,0.175573501
2988,0.175573501
2989,0.175573501
2990,0.175573501
2991,0.175573501
2992,0.175573501
2993,0.175573501
2994,0.175573501
2995,0.175573501
2996,0.175573501
2997,0.187378837
2998,0.187378837
2999,0.177171399
3000,0.191213425
3001,0.381704437
3002,0.581630521
3003,0.579632794
3004,0.337850055
3005,0.161024439
3006,0.161024439
3007,0.132876572
3008,0.155281985
3009,0.157356583
3010,0.135794121
3011,0.125043153
3012,0.146652737
3013,0.175573501
3014,0.175573501
3015,0.175573501
3016,0.175573501
3017,0.175573501
3018,0.175573501
3019,0.175573501
3020,0.175573501
3021,0.188754549
3022,0.196955592
3023,0.205666905
3024,0.205666905
3025,0.189298643
3026,0.178145489
3027,0.196957098
3028,0.326544181
3029,0.626376813
3030,0.626376813
3031,0.170701649
3032,0.146107007
3033,0.144445229
3034,0.15104456
3035,0.147083299
3036,0.146719109
3037,0.145798956
3038,0.143176625
3039,0.167521698
3040,0.175573501
3041,0.175573501
3042,0.177573501
3043,0.17772971
3044,0.176515455
3045,0.175573501
3046,0.175573501
3047,0.21068721
3048,0.228813452
3049,0.230615133
3050,0.226806857
3051,0.183445368
3052,0.153281481
3053,0.177080673
3054,0.262115045
3055,0.736631396
3056,0.736631396
3057,0.213988852
3058,0.179642981
3059,0.149926603
3060,0.122523581
3061,0.121903061
3062,0.12651615
3063,0.122806378
3064,0.108758868
3065,0.144955115
3066,0.175573501
3067,0.175573501
3068,0.175573501
3069,0.175573501
3070,0.175573501
3071,0.175573501
3072,0.175573501
3073,0.175573501
3074,0.175573501
3075,0.182054771
3076,0.193614854
3077,0.188852704
3078,0.173125279
3079,0.198389651
3080,0.245460987
3081,0.718670583
3082,0.804233278
3083,0.495827684
3084,0.137516993
3085,0.1496542
3086,0.111888043
3087,0.142432678
3088,0.142432678
3089,0.116022552
3090,0.106450935
3091,0.117603703
3092,0.158721119
3093,0.175573501
3094,0.175573501
3095,0.175573501
3096,0.175573501
3097,0.175573501
3098,0.175573501
3099,0.183340527
3100,0.205172907
3101,0.219988586
3102,0.219891694
3103,0.202087801
3104,0.172384468
3105,0.209603646
3106,0.280652783
3107,0.661899605
3108,0.741968536
3109,0.55457631
3110,0.169982635
3111,0.155877847
3112,0.155877847
3113,0.181492872
3114,0.179206605
3115,0.135445135
3116,0.121966455
3117,0.145413242
3118,0.176079916
3119,0.190860543
3120,0.190860543
3121,0.166980287
3122,0.175573501
3123,0.175705722
3124,0.187342338
3125,0.2096864
3126,0.221553884
3127,0.230386484
3128,0.238199289
3129,0.237858014
3130,0.227790844
3131,0.196743767
3132,0.186181399
3133,0.405804621
3134,0.637749443
3135,0.63594984
3136,0.273200638
3137,0.144306565
3138,0.14521099
3139,0.133912841
3140,0.130781934
3141,0.136605774
3142,0.124403684
3143,0.159393839
3144,0.173068882
3145,0.185570516
3146,0.184890935
3147,0.175573501
3148,0.175573501
3149,0.18451908
3150,0.191740713
3151,0.200871888
3152,0.202847703
3153,0.213816844
3154,0.223105586
3155,0.223684024
3156,0.208892151
3157,0.171107984
3158,0.182675154
3159,0.326523434
3160,0.54430558
3161,0.666967601
3162,0.472959981
3163,0.160750315
3164,0.160750315
3165,0.123771869
3166,0.139431801
3167,0.138514624
3168,0.112769264
3169,0.148381279
3170,0.16388663
3171,0.175573501
3172,0.176032986
3173,0.200482277
3174,0.211130689
3175,0.211894754
3176,0.207618693
3177,0.181941689
3178,0.185767029
3179,0.198348521
3180,0.207741179
3181,0.209938694
3182,0.195075676
3183,0.140835864
3184,0.146342543
3185,0.366332831
3186,0.638897324
3187,0.662551282
3188,0.36649146
3189,0.201630873
3190,0.201630873
3191,0.153434702
3192,0.159004955
3193,0.155526954
3194,0.157609941
3195,0.184638894
3196,0.184638894
3197,0.180763715
3198,0.171406766
3199,0.181295068
3200,0.183636977
3201,0.189150403
3202,0.189294596
3203,0.18675069
3204,0.182166968
3205,0.185595349
3206,0.187581566
3207,0.185319356
3208,0.17281162
3209,0.116334751
3210,0.109857046
3211,0.231419191
3212,0.412143506
3213,0.5581566
3214,0.529515995
3215,0.189735527
3216,0.189735527
3217,0.16944376
3218,0.16944376
3219,0.144061749
3220,0.14068525
3221,0.146907816
3222,0.157217983
3223,0.176070499
3224,0.177682495
3225,0.176115484
3226,0.179802134
3227,0.194348619
3228,0.195161832
3229,0.194975299
3230,0.195947444
3231,0.206400754
3232,0.206400754
3233,0.198578731
3234,0.193282884
3235,0.140250332
3236,0.125333323
3237,0.175573501
3238,0.247409579
3239,0.55241525
3240,0.55241525
3241,0.182282935
3242,0.233306048
3243,0.232289386
3244,0.184072237
3245,0.182889662
3246,0.182889662
3247,0.173509288
3248,0.175915408
3249,0.182852597
3250,0.182572209
3251,0.178598044
3252,0.177887164
3253,0.176516967
3254,0.175573501
3255,0.175573501
3256,0.175573501
3257,0.164028634
3258,0.169262
3259,0.176384508
3260,0.176384508
3261,0.155511053
3262,0.122199372
3263,0.110336787
3264,0.141368639
3265,0.36956789
3266,0.545454615
3267,0.533929241
3268,0.175573501
3269,0.192067467
3270,0.196607538
3271,0.210709924
3272,0.204660491
3273,0.181795447
3274,0.175957143
3275,0.175573501
3276,0.189479854
3277,0.191845261
3278,0.187191769
3279,0.165061281
3280,0.186011355
3281,0.197244493
3282,0.196202677
3283,0.16189237
3284,0.159470753
3285,0.165749297
3286,0.165868294
3287,0.168195776
3288,0.155311684
3289,0.118218291
3290,0.118218291
3291,0.265855739
3292,0.457463958
3293,0.511282343
3294,0.377929384
3295,0.197187217
3296,0.197187217
3297,0.178754813
3298,0.178754813
3299,0.172271919
3300,0.160840675
3301,0.16317848
3302,0.175446929
3303,0.178612438
3304,0.178612438
3305,0.190672996
3306,0.200318325
3307,0.210044398
3308,0.209930513
3309,0.182325219
3310,0.178094839
3311,0.168983791
3312,0.169317216
3313,0.169431034
3314,0.164142553
3315,0.117120298
3316,0.112496015
3317,0.198169675
3318,0.372019789
3319,0.515730815
3320,0.490308314
3321,0.220343104
3322,0.213123297
3323,0.200441479
3324,0.182101697
3325,0.17962334
3326,0.175573501
3327,0.176076805
3328,0.176076805
3329,0.175573501
3330,0.175573501
3331,0.175573501
3332,0.175573501
3333,0.175573501
3334,0.175573501
3335,0.175573501
3336,0.175573501
3337,0.170152768
3338,0.171505046
3339,0.170650739
3340,0.165542891
3341,0.146085698
3342,0.123476966
3343,0.116833997
3344,0.129274306
3345,0.286748796
3346,0.440946276
3347,0.452549183
3348,0.230042272
3349,0.22993032
3350,0.22993032
3351,0.188284024
3352,0.182686174
3353,0.181512544
3354,0.175573501
3355,0.178413402
3356,0.178413402
3357,0.179030997
3358,0.178623634
3359,0.175573501
3360,0.175573501
3361,0.182618252
3362,0.185227468
3363,0.183083235
3364,0.175034559
3365,0.17576412
3366,0.176121453
3367,0.16910924
3368,0.150431221
3369,0.117030463
3370,0.116366981
3371,0.182047617
3372,0.278985768
3373,0.464078396
3374,0.464078396
3375,0.198164465
3376,0.201300803
3377,0.195140204
3378,0.194825202
3379,0.180584467
3380,0.175573501
3381,0.175573501
3382,0.173174949
3383,0.183498669
3384,0.18298925
3385,0.175573501
3386,0.175573501
3387,0.175573501
3388,0.175573501
3389,0.175573501
3390,0.175573501
3391,0.168675866
3392,0.165850242
3393,0.165962553
3394,0.164307936
3395,0.152441816
3396,0.131243394
3397,0.116541167
3398,0.158523603
3399,0.427424352
3400,0.445646702
3401,0.278360309
3402,0.216227944
3403,0.217601216
3404,0.193112555
3405,0.188664462
3406,0.188664462
3407,0.175573501
3408,0.175573501
3409,0.175573501
3410,0.175573501
3411,0.175573501
3412,0.175573501
3413,0.175689242
3414,0.175689242
3415,0.175573501
3416,0.175573501
3417,0.175573501
3418,0.169496572
3419,0.175722084
3420,0.175722084
3421,0.160556045
3422,0.14695669
3423,0.119397383
3424,0.121451951
3425,0.175573501
3426,0.253283047
3427,0.470298382
3428,0.470298382
3429,0.180919485
3430,0.226029327
3431,0.206463349
3432,0.184025805
3433,0.188234367
3434,0.188234367
3435,0.175573501
3436,0.17649892
3437,0.176537248
3438,0.176772776
3439,0.177301475
3440,0.176912285
3441,0.175573501
3442,0.176846009
3443,0.177762434
3444,0.177015703
3445,0.165428379
3446,0.168551253
3447,0.172072506
3448,0.169596146
3449,0.149935996
3450,0.135501983
3451,0.121476159
3452,0.157627639
3453,0.342844448
3454,0.460118863
3455,0.4357912
3456,0.175573501
3457,0.184160936
3458,0.202091026
3459,0.212213254
3460,0.20028122
3461,0.181246694
3462,0.179892459
3463,0.177378953
3464,0.182280666
3465,0.181988808
3466,0.177716777
3467,0.175573501
3468,0.175573501
3469,0.175573501
3470,0.175573501
3471,0.175573501
3472,0.175573501
3473,0.164339648
3474,0.17785851
3475,0.185003294
3476,0.184002895
3477,0.145400328
3478,0.123788541
3479,0.134591262
3480,0.153342892
3481,0.343927256
3482,0.426899677
3483,0.403278743
3484,0.175573501
3485,0.221877154
3486,0.221881854
3487,0.195825366
3488,0.191928984
3489,0.192447272
3490,0.184454187
3491,0.171314259
3492,0.17114108
3493,0.173386863
3494,0.176099275
3495,0.181096214
3496,0.182449928
3497,0.184247392
3498,0.184247392
3499,0.181146449
3500,0.178048047
3501,0.169292337
3502,0.175323362
3503,0.179050451
3504,0.178916005
3505,0.143376943
3506,0.124593437
3507,0.158264263
3508,0.171277879
3509,0.447729913
3510,0.461610199
3511,0.252346487
3512,0.15568042
3513,0.209986698
3514,0.211672433
3515,0.199196119
3516,0.180722176
3517,0.175191134
3518,0.170986321
3519,0.188269867
3520,0.189654843
3521,0.188012243
3522,0.183610574
3523,0.176516505
3524,0.176963204
3525,0.175573501
3526,0.174831561
3527,0.170882468
3528,0.166810601
3529,0.177891576
3530,0.186245502
3531,0.186599942
3532,0.176688815
3533,0.121669004
3534,0.118952733
3535,0.213748447
3536,0.346572097
3537,0.435778627
3538,0.396365677
3539,0.185589958
3540,0.185589958
3541,0.183019659
3542,0.186833237
3543,0.182442653
3544,0.179997656
3545,0.192311571
3546,0.192311571
3547,0.178546074
3548,0.165516038
3549,0.160858803
3550,0.164965435
3551,0.182456068
3552,0.189561345
3553,0.193350824
3554,0.193350824
3555,0.188960396
3556,0.185512198
3557,0.18526992
3558,0.18526992
3559,0.171259954
3560,0.146502581
3561,0.119665661
3562,0.147254964
3563,0.287438363
3564,0.411223636
3565,0.428477227
3566,0.324733318
3567,0.190737888
3568,0.190737888
3569,0.182421885
3570,0.182421885
3571,0.173597066
3572,0.163331433
3573,0.144321344
3574,0.151446267
3575,0.17517651
3576,0.176883141
3577,0.176924686
3578,0.185672437
3579,0.204272334
3580,0.204642635
3581,0.203942875
3582,0.197601998
3583,0.182269628
3584,0.17541054
3585,0.179252483
3586,0.179252483
3587,0.168164239
3588,0.143963839
3589,0.132493074
3590,0.149415371
3591,0.341595062
3592,0.428653482
3593,0.417159566
3594,0.175573501
3595,0.203695752
3596,0.203695752
3597,0.20677687
3598,0.20677687
3599,0.190913475
3600,0.1844019
3601,0.18823145
3602,0.184526415
3603,0.18141785
3604,0.179816887
3605,0.175573501
3606,0.175573501
3607,0.175573501
3608,0.175573501
3609,0.175573501
3610,0.175573501
3611,0.17405714
3612,0.170627757
3613,0.16712749
3614,0.165025346
3615,0.143798854
3616,0.125257567
3617,0.142780792
3618,0.183956387
3619,0.443810709
3620,0.443810709
3621,0.196600402
3622,0.209239159
3623,0.19036633
3624,0.193171538
3625,0.195737335
3626,0.195737335
3627,0.185321206
3628,0.176689139
3629,0.176744793
3630,0.174926036
3631,0.17771967
3632,0.177829104
3633,0.17830584
3634,0.178806202
3635,0.17866701
3636,0.175573501
3637,0.175573501
3638,0.166789244
3639,0.1701453
3640,0.173968389
3641,0.176433681
3642,0.170032504
3643,0.129304845
3644,0.129304845
3645,0.185714853
3646,0.287414454
3647,0.415112064
3648,0.415112064
3649,0.223289451
3650,0.224511588
3651,0.20066713
3652,0.187460438
3653,0.19549825
3654,0.19549825
3655,0.178769293
3656,0.182426867
3657,0.183229879
3658,0.181982523
3659,0.175573501
3660,0.175573501
3661,0.175700662
3662,0.179820362
3663,0.179912286
3664,0.175573501
3665,0.167744548
3666,0.174613104
3667,0.178005385
3668,0.175573501
3669,0.141968925
3670,0.118902383
3671,0.130780003
3672,0.1355522
3673,0.330504183
3674,0.429256664
3675,0.403160617
3676,0.199345266
3677,0.197823961
3678,0.202521212
3679,0.192809927
3680,0.185883818
3681,0.178162724
3682,0.175573501
3683,0.175573501
3684,0.175573501
3685,0.175573501
3686,0.175573501
3687,0.175573501
3688,0.175573501
3689,0.175573501
3690,0.175573501
3691,0.175573501
3692,0.175573501
3693,0.159853536
3694,0.164437928
3695,0.169600795
3696,0.172369995
3697,0.168475628
3698,0.1264849
3699,0.13221771
3700,0.135599133
3701,0.344228661
3702,0.423389967
3703,0.395153114
3704,0.148109167
3705,0.233379538
3706,0.233379538
3707,0.19414371
3708,0.192497172
3709,0.188211381
3710,0.18426188
3711,0.178819374
3712,0.178353347
3713,0.176959293
3714,0.176887989
3715,0.175573501
3716,0.175573501
3717,0.175573501
3718,0.175573501
3719,0.175573501
3720,0.175573501
3721,0.173232108
3722,0.18731477
3723,0.187687198
3724,0.178275639
3725,0.126737704
3726,0.141877306
3727,0.142884924
3728,0.157258494
3729,0.433551112
3730,0.433551112
3731,0.203103659
3732,0.203103659
3733,0.196866639
3734,0.196866639
3735,0.184914901
3736,0.178233667
3737,0.175573501
3738,0.175573501
3739,0.175573501
3740,0.175573501
3741,0.175573501
3742,0.175723777
3743,0.180534907
3744,0.18111351
3745,0.176796125
3746,0.175573501
3747,0.175573501
3748,0.16658754
3749,0.178427102
3750,0.180650237
3751,0.178098076
3752,0.165712957
3753,0.120875732
3754,0.129960849
3755,0.176308515
3756,0.257707606
3757,0.563329242
3758,0.563329242
3759,0.18598795
3760,0.187335912
3761,0.199661373
3762,0.199661373
3763,0.187217232
3764,0.17800171
3765,0.16446373
3766,0.158114876
3767,0.145883305
3768,0.145091913
3769,0.153462353
3770,0.163826282
3771,0.184778108
3772,0.187929112
3773,0.188278735
3774,0.187829189
3775,0.190887385
3776,0.193266343
3777,0.203600569
3778,0.203600569
3779,0.198169513
3780,0.17835789
3781,0.125649969
3782,0.120456494
3783,0.194253299
3784,0.328818127
3785,0.473166426
3786,0.39985565
3787,0.175573501
3788,0.187605618
3789,0.195351458
3790,0.195328276
3791,0.177242565
3792,0.170403878
3793,0.170834492
3794,0.166502973
3795,0.157429828
3796,0.154718565
3797,0.165248897
3798,0.175744275
3799,0.196180155
3800,0.199925187
3801,0.200116026
3802,0.197710444
3803,0.183477812
3804,0.169807809
3805,0.192559764
3806,0.19325616
3807,0.191421878
3808,0.18221563
3809,0.145712405
3810,0.155198949
3811,0.183757094
3812,0.383870599
3813,0.564957585
3814,0.536294197
3815,0.173887149
3816,0.167264502
3817,0.176024592
3818,0.166453192
3819,0.147244919
3820,0.149954481
3821,0.15550757
3822,0.159295117
3823,0.171588483
3824,0.175573501
3825,0.175573501
3826,0.175573501
3827,0.191455491
3828,0.197257591
3829,0.2054414
3830,0.2054414
3831,0.194551733
3832,0.210537563
3833,0.242164243
3834,0.242164243
3835,0.227160433
3836,0.197582047
3837,0.161841442
3838,0.175573501
3839,0.338274732
3840,0.427513883
3841,0.32672953
3842,0.182006588
3843,0.1948562
3844,0.18985202
3845,0.164984585
3846,0.157178752
3847,0.147355551
3848,0.151443022
3849,0.156069092
3850,0.160565699
3851,0.170445841
3852,0.175906343
3853,0.190214784
3854,0.190661705
3855,0.191357152
3856,0.191357152
3857,0.188014597
3858,0.185314239
3859,0.18815817
3860,0.188445497
3861,0.187864759
3862,0.174322866
3863,0.123207434
3864,0.13009366
3865,0.206660408
3866,0.354204402
3867,0.587579231
3868,0.544727056
3869,0.184955483
3870,0.184955483
3871,0.146979474
3872,0.158066365
3873,0.158774589
3874,0.14203939
3875,0.157951417
3876,0.169236633
3877,0.173490873
3878,0.173490873
3879,0.182485416
3880,0.190274267
3881,0.199711475
3882,0.20287117
3883,0.204146701
3884,0.202406937
3885,0.196613776
3886,0.208907118
3887,0.217416489
3888,0.217416489
3889,0.207760277
3890,0.169410471
3891,0.169384086
3892,0.168158623
3893,0.401551144
3894,0.415825801
3895,0.179630561
3896,0.183719047
3897,0.195191059
3898,0.203216288
3899,0.191581888
3900,0.170161314
3901,0.160308465
3902,0.160308465
3903,0.172308265
3904,0.173692544
3905,0.173339895
3906,0.166184187
3907,0.175041673
3908,0.180802452
3909,0.192986947
3910,0.196426568
3911,0.196796711
3912,0.194639648
3913,0.206707519
3914,0.216914335
3915,0.217267005
3916,0.207136917
3917,0.15234058
3918,0.133614183
3919,0.165591791
3920,0.225740228
3921,0.536288725
3922,0.536288725
3923,0.174526947
3924,0.192152586
3925,0.195632785
3926,0.196292528
3927,0.176119028
3928,0.15798511
3929,0.152911005
3930,0.148892341
3931,0.149719548
3932,0.152504886
3933,0.161990798
3934,0.16882194
3935,0.183932705
3936,0.192032711
3937,0.199468665
3938,0.199468665
3939,0.194331845
3940,0.184680435
3941,0.206831175
3942,0.210314202
3943,0.212873823
3944,0.196361171
3945,0.145808011
3946,0.152895175
3947,0.181347777
3948,0.336114896
3949,0.407034848
3950,0.337658081
3951,0.189511478
3952,0.190594589
3953,0.197673912
3954,0.197673912
3955,0.155571964
3956,0.144270078
3957,0.156425515
3958,0.158787962
3959,0.168859221
3960,0.170312163
3961,0.17525048
3962,0.181231048
3963,0.195250188
3964,0.195250188
3965,0.19253248
3966,0.183684889
3967,0.181073493
3968,0.191823008
3969,0.20554269
3970,0.20554269
3971,0.174380818
3972,0.150706699
3973,0.154370206
3974,0.189874007
3975,0.443085877
3976,0.443085877
3977,0.185680315
3978,0.193687212
3979,0.199867345
3980,0.183427833
3981,0.179832475
3982,0.179832475
3983,0.160617987
3984,0.169093474
3985,0.176854978
3986,0.177053737
3987,0.179422986
3988,0.186249305
3989,0.191985536
3990,0.191985536
3991,0.185195693
3992,0.178321943
3993,0.171542181
3994,0.174000242
3995,0.176298897
3996,0.176298897
3997,0.148939108
3998,0.126840616
3999,0.131539221
4000,0.140672073
4001,0.461438942
4002,0.461438942
4003,0.197579919
4004,0.203093225
4005,0.216155468
4006,0.199388947
4007,0.181220602
4008,0.173924538
4009,0.157347941
4010,0.157459432
4011,0.163540683
4012,0.169138558
4013,0.175140494
4014,0.175674576
4015,0.180228248
4016,0.183330002
4017,0.186382173
4018,0.186336648
4019,0.184674553
4020,0.181932352
4021,0.175185703
4022,0.17589898
4023,0.178459705
4024,0.178459705
4025,0.148267774
4026,0.132830306
4027,0.136857862
4028,0.207510609
4029,0.510324418
4030,0.510324418
4031,0.196249425
4032,0.196249425
4033,0.166392129
4034,0.184570459
4035,0.18909275
4036,0.181075444
4037,0.158784134
4038,0.162565235
4039,0.166254083
4040,0.175996469
4041,0.177317984
4042,0.178266585
4043,0.178775951
4044,0.180603452
4045,0.186785796
4046,0.187501861
4047,0.192402167
4048,0.194430336
4049,0.194722348
4050,0.193978338
4051,0.168493052
4052,0.142918177
4053,0.143731681
4054,0.143731681
4055,0.427233685
4056,0.481206129
4057,0.364885849
4058,0.186230131
4059,0.198454169
4060,0.198454169
4061,0.176345439
4062,0.155621644
4063,0.163060409
4064,0.168322936
4065,0.18224033
4066,0.185034869
4067,0.184983525
4068,0.180765376
4069,0.1747387
4070,0.177352681
4071,0.177478415
4072,0.177478415
4073,0.175781588
4074,0.176554778
4075,0.190829414
4076,0.197431403
4077,0.195404671
4078,0.177293252
4079,0.14432876
4080,0.143560278
4081,0.267294436
4082,0.482750994
4083,0.496976341
4084,0.22654475
4085,0.21617967
4086,0.21617967
4087,0.176711681
4088,0.165687653
4089,0.160224214
4090,0.153430425
4091,0.167366907
4092,0.167366907
4093,0.166047616
4094,0.163332692
4095,0.180876439
4096,0.188841009
4097,0.196779129
4098,0.199351674
4099,0.199998318
4100,0.199332806
4101,0.211497152
4102,0.213000716
4103,0.209170932
4104,0.198223457
4105,0.135731915
4106,0.136293545
4107,0.167312635
4108,0.206288075
4109,0.508059569
4110,0.508059569
4111,0.177834568
4112,0.177834568
4113,0.194235181
4114,0.188526095
4115,0.156001535
4116,0.147619728
4117,0.13826367
4118,0.138566375
4119,0.155413864
4120,0.162799885
4121,0.169001273
4122,0.175573501
4123,0.192718171
4124,0.198728121
4125,0.204586514
4126,0.204586514
4127,0.201334034
4128,0.207591284
4129,0.226216748
4130,0.226284448
4131,0.213908429
4132,0.180920615
4133,0.14462511
4134,0.161719899
4135,0.47154999
4136,0.520143891
4137,0.369982975
4138,0.145207524
4139,0.130048434
4140,0.13828437
4141,0.153137373
4142,0.153137373
4143,0.139544432
4144,0.144897869
4145,0.155149167
4146,0.168494328
4147,0.175573501
4148,0.176363
4149,0.175573501
4150,0.183474691
4151,0.197838947
4152,0.197838947
4153,0.189554224
4154,0.182800302
4155,0.203071256
4156,0.208462717
4157,0.212657003
4158,0.212442253
4159,0.180222546
4160,0.17157436
4161,0.172878032
4162,0.323135294
4163,0.525321788
4164,0.525321788
4165,0.153630946
4166,0.160196319
4167,0.146360244
4168,0.12175824
4169,0.130802079
4170,0.130802079
4171,0.133969358
4172,0.149358844
4173,0.171640244
4174,0.175573501
4175,0.175573501
4176,0.175573501
4177,0.187825051
4178,0.190309524
4179,0.190630692
4180,0.187553523
4181,0.200913483
4182,0.21489828
4183,0.228951831
4184,0.228951831
4185,0.214050759
4186,0.193056672
4187,0.165109843
4188,0.160987581
4189,0.444141281
4190,0.510592317
4191,0.286158034
4192,0.145056998
4193,0.165005691
4194,0.159095399
4195,0.166167754
4196,0.157951005
4197,0.151541508
4198,0.146450496
4199,0.158038633
4200,0.174171704
4201,0.179343418
4202,0.179343418
4203,0.175573501
4204,0.175573501
4205,0.181151768
4206,0.183858929
4207,0.204901843
4208,0.221944269
4209,0.238037549
4210,0.238214073
4211,0.23211407
4212,0.211951693
4213,0.17869431
4214,0.176265245
4215,0.400657322
4216,0.513799261
4217,0.469658744
4218,0.155936842
4219,0.160165769
4220,0.158635466
4221,0.145761182
4222,0.152464625
4223,0.153404776
4224,0.137986815
4225,0.137922518
4226,0.157481851
4227,0.175573501
4228,0.175573501
4229,0.175573501
4230,0.175573501
4231,0.175573501
4232,0.175573501
4233,0.175573501
4234,0.175573501
4235,0.216673897
4236,0.228892504
4237,0.231525268
4238,0.226872566
4239,0.191219457
4240,0.18095827
4241,0.181527417
4242,0.2094892
4243,0.503144163
4244,0.503144163
4245,0.108758621
4246,0.137459789
4247,0.169053204
4248,0.175573501
4249,0.16554054
4250,0.145986239
4251,0.140940117
4252,0.140521843
4253,0.168354725
4254,0.175573501
4255,0.175573501
4256,0.175573501
4257,0.175573501
4258,0.175573501
4259,0.175573501
4260,0.175573501
4261,0.177210623
4262,0.17741871
4263,0.208754738
4264,0.222684881
4265,0.224532026
4266,0.223188437
4267,0.194286542
4268,0.191261604
4269,0.226084695
4270,0.433966898
4271,0.506118888
4272,0.444158676
4273,0.16470819
4274,0.16470819
4275,0.161634585
4276,0.161634585
4277,0.151376663
4278,0.146306034
4279,0.143648444
4280,0.148046417
4281,0.175573501
4282,0.175573501
4283,0.202781129
4284,0.20632953
4285,0.209572347
4286,0.208554287
4287,0.205033942
4288,0.197524658
4289,0.202757628
4290,0.294611198
4291,0.53587191
4292,0.53587191
4293,0.12923746
4294,0.132905273
4295,0.147228552
4296,0.148354716
4297,0.15175466
4298,0.146680428
4299,0.106781587
4300,0.135662461
4301,0.168153196
4302,0.175573501
4303,0.175573501
4304,0.175573501
4305,0.181980354
4306,0.181980354
4307,0.177051524
4308,0.172534704
4309,0.175573501
4310,0.175573501
4311,0.175573501
4312,0.175573501
4313,0.181767779
4314,0.191181495
4315,0.21121086
4316,0.229592221
4317,0.251688931
4318,0.251688931
4319,0.222905528
4320,0.205746356
4321,0.412113605
4322,0.599670963
4323,0.586249474
4324,0.186448085
4325,0.142509818
4326,0.141428957
4327,0.145387986
4328,0.151722308
4329,0.153859043
4330,0.151836306
4331,0.148856034
4332,0.16181932
4333,0.175573501
4334,0.175573501
4335,0.175573501
4336,0.175573501
4337,0.175573501
4338,0.175573501
4339,0.179497444
4340,0.181408573
4341,0.179105573
4342,0.194344059
4343,0.220106035
4344,0.2252831
4345,0.227433066
4346,0.222508377
4347,0.169437832
4348,0.194490081
4349,0.406303843
4350,0.569806727
4351,0.494923328
4352,0.139472505
4353,0.141433877
4354,0.155573173
4355,0.15818373
4356,0.155111718
4357,0.14577435
4358,0.141728923
4359,0.136054615
4360,0.15795582
4361,0.175573501
4362,0.175573501
4363,0.175573501
4364,0.175573501
4365,0.175573501
4366,0.175573501
4367,0.175573501
4368,0.178896529
4369,0.19378724
4370,0.202340725
4371,0.213602257
4372,0.213602257
4373,0.193189544
4374,0.173591037
4375,0.184438288
4376,0.31185171
4377,0.510192023
4378,0.505036177
4379,0.154935096
4380,0.154935096
4381,0.156187114
4382,0.153535486
4383,0.158059063
4384,0.158059063
4385,0.145744552
4386,0.145744552
4387,0.172681139
4388,0.175573501
4389,0.175573501
4390,0.175573501
4391,0.175573501
4392,0.175573501
4393,0.175573501
4394,0.175573501
4395,0.194621506
4396,0.214079947
4397,0.224483734
4398,0.227509733
4399,0.224578343
4400,0.199937626
4401,0.17404102
4402,0.180858886
4403,0.350709287
4404,0.45475647
4405,0.442295484
4406,0.119027375
4407,0.148669853
4408,0.148669853
4409,0.165535938
4410,0.175863144
4411,0.174138024
4412,0.138801999
4413,0.151421325
4414,0.16384873
4415,0.175573501
4416,0.175573501
4417,0.175573501
4418,0.175573501
4419,0.175573501
4420,0.175573501
4421,0.175573501
4422,0.184886788
4423,0.217432234
4424,0.226218726
4425,0.226988706
4426,0.220039213
4427,0.167826598
4428,0.178888139
4429,0.237478041
4430,0.383614573
4431,0.471785069
4432,0.460747842
4433,0.11773619
4434,0.13144457
4435,0.1744044
4436,0.1744044
4437,0.154524414
4438,0.139807383
4439,0.141390616
4440,0.142458737
4441,0.175573501
4442,0.175573501
4443,0.175573501
4444,0.175573501
4445,0.175573501
4446,0.175573501
4447,0.175573501
4448,0.175573501
4449,0.189007213
4450,0.196532546
4451,0.227228843
4452,0.227705326
4453,0.206454064
4454,0.183480712
4455,0.167699785
4456,0.213733022
4457,0.478911265
4458,0.506716905
4459,0.255392213
4460,0.168029303
4461,0.171213753
4462,0.14750519
4463,0.16658058
4464,0.16658058
4465,0.13682875
4466,0.150372472
4467,0.172142913
4468,0.175499761
4469,0.175573501
4470,0.175573501
4471,0.175573501
4472,0.175573501
4473,0.175573501
4474,0.175573501
4475,0.175573501
4476,0.175573501
4477,0.204693665
4478,0.208538044
4479,0.211514263
4480,0.211514263
4481,0.202182822
4482,0.186867858
4483,0.187369369
4484,0.226384652
4485,0.489597018
4486,0.494430882
4487,0.259587868
4488,0.148876757
4489,0.145194108
4490,0.147739377
4491,0.176548052
4492,0.176548052
4493,0.135287214
4494,0.133863263
4495,0.144963818
4496,0.170516675
4497,0.175573501
4498,0.175573501
4499,0.175573501
4500,0.175573501
4501,0.175573501
4502,0.175697717
4503,0.178174033
4504,0.192300012
4505,0.217348192
4506,0.221647786
4507,0.221184332
4508,0.212849938
4509,0.162177852
4510,0.160155757
4511,0.278376296
4512,0.47921718
4513,0.501944901
4514,0.338500389
4515,0.162303965
4516,0.175189914
4517,0.162894804
4518,0.163029397
4519,0.166769377
4520,0.159649055
4521,0.133636727
4522,0.157695243
4523,0.175573501
4524,0.175573501
4525,0.175573501
4526,0.175573501
4527,0.184396174
4528,0.191250649
4529,0.196321731
4530,0.196089972
4531,0.210867656
4532,0.240785257
4533,0.26739958
4534,0.26739958
4535,0.384137012
4536,0.454791899
4537,0.418913105
4538,0.151306811
4539,0.151116793
4540,0.151116793
4541,0.112196159
4542,0.121267971
4543,0.13883569
4544,0.144407852
4545,0.148491565
4546,0.160780706
4547,0.175573501
4548,0.175573501
4549,0.175573501
4550,0.175573501
4551,0.175573501
4552,0.175972756
4553,0.176494753
4554,0.176317945
4555,0.175573501
4556,0.175573501
4557,0.17945875
4558,0.201445537
4559,0.218393792
4560,0.223208211
4561,0.232781001
4562,0.232781001
4563,0.182545115
4564,0.178150999
4565,0.270155889
4566,0.42076611
4567,0.51238645
4568,0.403485248
4569,0.158777096
4570,0.158777096
4571,0.160996528
4572,0.173954264
4573,0.172067811
4574,0.153265869
4575,0.136367879
4576,0.140819757
4577,0.175573501
4578,0.175573501
4579,0.175573501
4580,0.175573501
4581,0.175573501
4582,0.175573501
4583,0.176744493
4584,0.176744493
4585,0.184499052
4586,0.19451745
4587,0.22282592
4588,0.235886694
4589,0.233844226
4590,0.205438748
4591,0.177435147
4592,0.197171771
4593,0.350681501
4594,0.510838929
4595,0.505140598
4596,0.206645268
4597,0.177140392
4598,0.177140392
4599,0.158323478
4600,0.161427255
4601,0.153646567
4602,0.136620175
4603,0.144697576
4604,0.156321579
4605,0.175573501
4606,0.175573501
4607,0.175573501
4608,0.175573501
4609,0.175573501
4610,0.175573501
4611,0.175573501
4612,0.175573501
4613,0.206302725
4614,0.217140897
4615,0.219877713
4616,0.219824782
4617,0.18359984
4618,0.167326788
4619,0.160240265
4620,0.213557572
4621,0.47078903
4622,0.480420717
4623,0.266922903
4624,0.150151045
4625,0.180280292
4626,0.160835788
4627,0.167391427
4628,0.167391427
4629,0.152956832
4630,0.142579961
4631,0.157263022
4632,0.169947685
4633,0.175573501
4634,0.175573501
4635,0.175573501
4636,0.175573501
4637,0.175573501
4638,0.175573501
4639,0.175747698
4640,0.186013107
4641,0.22233235
4642,0.226243114
4643,0.22397664
4644,0.211417682
4645,0.175573501
4646,0.170506797
4647,0.268750806
4648,0.391650149
4649,0.495042395
4650,0.393052377
4651,0.171471533
4652,0.171471533
4653,0.17545351
4654,0.17545351
4655,0.156348815
4656,0.150226916
4657,0.123051123
4658,0.140187841
4659,0.175573501
4660,0.175573501
4661,0.175573501
4662,0.175573501
4663,0.175573501
4664,0.175573501
4665,0.175573501
4666,0.175573501
4667,0.187464999
4668,0.193420094
4669,0.211410778
4670,0.211410778
4671,0.191704015
4672,0.175573501
4673,0.213971186
4674,0.276746808
4675,0.52248102
4676,0.52248102
4677,0.149764496
4678,0.187272142
4679,0.174660188
4680,0.157006685
4681,0.166252648
4682,0.162849492
4683,0.12664934
4684,0.140256843
4685,0.168199078
4686,0.180644672
4687,0.188242627
4688,0.190993812
4689,0.197448183
4690,0.20913263
4691,0.217540427
4692,0.217540427
4693,0.258731518
4694,0.422308873
4695,0.528508178
4696,0.431272965
4697,0.17441147
4698,0.170208513
4699,0.141592589
4700,0.154339671
4701,0.151551493
4702,0.130568272
4703,0.126109033
4704,0.138204746
4705,0.175573501
4706,0.182684059
4707,0.188223091
4708,0.188140422
4709,0.188064815
4710,0.188064815
4711,0.180739911
4712,0.177605075
4713,0.165739868
4714,0.163205073
4715,0.168366019
4716,0.175348652
4717,0.175573501
4718,0.179614847
4719,0.195041222
4720,0.202477916
4721,0.22572435
4722,0.238523036
4723,0.258818239
4724,0.261546203
4725,0.281677034
4726,0.419383223
4727,0.561994432
4728,0.544945562
4729,0.175282263
4730,0.169561648
4731,0.169633367
4732,0.171607834
4733,0.169800067
4734,0.158234528
4735,0.160320507
4736,0.161360755
4737,0.17096648
4738,0.178179185
4739,0.175573501
4740,0.175573501
4741,0.175573501
4742,0.175573501
4743,0.197046844
4744,0.198090707
4745,0.197417771
4746,0.191640859
4747,0.162353792
4748,0.160246828
4749,0.179259232
4750,0.195267078
4751,0.211474398
4752,0.211474398
4753,0.186029346
4754,0.185658778
4755,0.255003843
4756,0.421976973
4757,0.600258842
4758,0.598248319
4759,0.167211197
4760,0.152816743
4761,0.147090143
4762,0.128696671
4763,0.125096191
4764,0.119690808
4765,0.133088007
4766,0.137294163
4767,0.164601622
4768,0.175573501
4769,0.187682524
4770,0.208979014
4771,0.241485198
4772,0.243946547
4773,0.241656261
4774,0.23632753
4775,0.226774369
4776,0.335254834
4777,0.518183947
4778,0.514507195
4779,0.082097499
4780,0.151747376
4781,0.14519522
4782,0.128970229
4783,0.145775122
4784,0.145775122
4785,0.163527201
4786,0.179145904
4787,0.205156236
4788,0.216155224
4789,0.228535846
4790,0.229301398
4791,0.228138686
4792,0.223528535
4793,0.203679565
4794,0.188785181
4795,0.163327087
4796,0.154985337
4797,0.150304045
4798,0.152308158
4799,0.155199562
4800,0.162631724
4801,0.183741047
4802,0.199159656
4803,0.239435455
4804,0.245062913
4805,0.241921823
4806,0.219807083
4807,0.292816312
4808,0.416883713
4809,0.502475553
4810,0.403591627
4811,0.201904078
4812,0.201904078
4813,0.183520062
4814,0.183520062
4815,0.161123104
4816,0.161123104
4817,0.144706632
4818,0.137380849
4819,0.124664781
4820,0.129975839
4821,0.156930823
4822,0.170619608
4823,0.184428804
4824,0.199772182
4825,0.217862321
4826,0.219779384
4827,0.218847577
4828,0.204191292
4829,0.189789758
4830,0.192225399
4831,0.196236983
4832,0.196236983
4833,0.185028825
4834,0.155774165
4835,0.145907207
4836,0.178195394
4837,0.456841034
4838,0.510593172
4839,0.415238108
4840,0.185676821
4841,0.180530879
4842,0.180530879
4843,0.162772572
4844,0.162772572
4845,0.152814103
4846,0.160860357
4847,0.165739171
4848,0.166764078
4849,0.170432717
4850,0.175573501
4851,0.188168833
4852,0.192907398
4853,0.195146115
4854,0.195146115
4855,0.184497542
4856,0.176671719
4857,0.186002124
4858,0.18851105
4859,0.199414942
4860,0.199414942
4861,0.175035099
4862,0.142256558
4863,0.175573501
4864,0.293107832
4865,0.628739979
4866,0.628739979
4867,0.159048731
4868,0.170229959
4869,0.1411089
4870,0.140945801
4871,0.13576822
4872,0.129604307
4873,0.099020477
4874,0.116106585
4875,0.147119891
4876,0.171455796
4877,0.202778573
4878,0.211880208
4879,0.235825519
4880,0.246615944
4881,0.250331778
4882,0.249496969
4883,0.237659838
4884,0.266707262
4885,0.576923076
4886,0.58118211
4887,0.312866995
4888,0.046233522
4889,0.092897534
4890,0.09563667
4891,0.112914575
4892,0.133377052
4893,0.152579607
4894,0.167189303
4895,0.199551585
4896,0.211653473
4897,0.233616398
4898,0.23588538
4899,0.235447692
4900,0.229626028
4901,0.210731736
4902,0.203324341
4903,0.184357688
4904,0.173062884
4905,0.156118423
4906,0.152933304
4907,0.147597336
4908,0.156892214
4909,0.169072131
4910,0.173817218
4911,0.200919453
4912,0.220652046
4913,0.229304379
4914,0.228705156
4915,0.2868372
4916,0.515506329
4917,0.603899555
4918,0.487504261
4919,0.196880696
4920,0.195962675
4921,0.162216813
4922,0.15175369
4923,0.147274893
4924,0.137505102
4925,0.121574787
4926,0.124650854
4927,0.16561098
4928,0.174374561
4929,0.17646287
4930,0.175573501
4931,0.182701484
4932,0.194214764
4933,0.209433207
4934,0.21290852
4935,0.213596137
4936,0.204719215
4937,0.181413265
4938,0.184976899
4939,0.189971794
4940,0.190235906
4941,0.184770075
4942,0.166097932
4943,0.112562477
4944,0.162933239
4945,0.369247356
4946,0.498238726
4947,0.485228134
4948,0.180029391
4949,0.231599912
4950,0.230834245
4951,0.177685756
4952,0.176197066
4953,0.162399113
4954,0.137371089
4955,0.137566793
4956,0.140014618
4957,0.157321187
4958,0.16444267
4959,0.18291478
4960,0.192457231
4961,0.200000809
4962,0.200537247
4963,0.197115633
4964,0.191715002
4965,0.196670142
4966,0.203695889
4967,0.204927094
4968,0.20209619
4969,0.169898694
4970,0.155224911
4971,0.228141104
4972,0.375609557
4973,0.691736091
4974,0.691736091
4975,0.148578853
4976,0.149894603
4977,0.13907112
4978,0.134840174
4979,0.097012683
4980,0.097012683
4981,0.107456631
4982,0.131430282
4983,0.177453505
4984,0.18229256
4985,0.179372381
4986,0.179355435
4987,0.201918605
4988,0.201918605
4989,0.196400239
4990,0.18701406
4991,0.195744898
4992,0.205162867
4993,0.228290235
4994,0.228290235
4995,0.208386089
4996,0.182989728
4997,0.173928665
4998,0.259205847
4999,0.578595633
5000,0.578595633
5001,0.171518373
5002,0.196970434
5003,0.197441213
5004,0.153117541
5005,0.141625155
5006,0.140975565
5007,0.123071552
5008,0.144261272
5009,0.165456328
5010,0.169875871
5011,0.171555916
5012,0.174234489
5013,0.186475384
5014,0.188859694
5015,0.188527298
5016,0.185529817
5017,0.191638167
5018,0.202984184
5019,0.223641378
5020,0.226641205
5021,0.218032347
5022,0.195265235
5023,0.155275966
5024,0.16128689
5025,0.50989646
5026,0.681937437
5027,0.648125733
5028,0.175573501
5029,0.12769477
5030,0.126723389
5031,0.115951816
5032,0.111012315
5033,0.119792105
5034,0.128348653
5035,0.148109057
5036,0.161347928
5037,0.175573501
5038,0.181825643
5039,0.188433844
5040,0.188433844
5041,0.185225014
5042,0.181614633
5043,0.18385027
5044,0.194512085
5045,0.2130193
5046,0.216495647
5047,0.216418716
5048,0.203948634
5049,0.145903295
5050,0.150609857
5051,0.292136013
5052,0.495561184
5053,0.575083066
5054,0.493289028
5055,0.18760824
5056,0.18760824
5057,0.135968368
5058,0.146752918
5059,0.148830137
5060,0.133102163
5061,0.126294515
5062,0.145440934
5063,0.173440101
5064,0.181333601
5065,0.188783387
5066,0.196573078
5067,0.214163885
5068,0.229841632
5069,0.232261649
5070,0.22868636
5071,0.461942463
5072,0.65959773
5073,0.653670861
5074,0.305132341
5075,0.088426702
5076,0.083383023
5077,0.077849395
5078,0.088155625
5079,0.112881462
5080,0.138926474
5081,0.197506446
5082,0.207999157
5083,0.217310438
5084,0.225579046
5085,0.236804291
5086,0.236804291
5087,0.224695882
5088,0.206274251
5089,0.173215839
5090,0.164685522
5091,0.15134051
5092,0.147594107
5093,0.145237422
5094,0.14888269
5095,0.170726444
5096,0.182371286
5097,0.204238475
5098,0.215969095
5099,0.25978872
5100,0.275113157
5101,0.309973748
5102,0.501972154
5103,0.707921874
5104,0.707921874
5105,0.175573501
5106,0.188023408
5107,0.163717044
5108,0.163717044
5109,0.170473507
5110,0.171131846
5111,0.171029823
5112,0.169329279
5113,0.167858111
5114,0.17068143
5115,0.175573501
5116,0.175573501
5117,0.175573501
5118,0.177846429
5119,0.205522432
5120,0.207021676
5121,0.200881824
5122,0.194762041
5123,0.192529867
5124,0.20118202
5125,0.21006168
5126,0.210387632
5127,0.210050412
5128,0.168492328
5129,0.163592375
5130,0.230378375
5131,0.539338099
5132,0.539338099
5133,0.175573501
5134,0.188321886
5135,0.198895729
5136,0.166994945
5137,0.163767859
5138,0.163767859
5139,0.134551068
5140,0.141467272
5141,0.158402278
5142,0.163874318
5143,0.165811745
5144,0.169651443
5145,0.191299268
5146,0.200377696
5147,0.211227739
5148,0.211227739
5149,0.207782258
5150,0.198768254
5151,0.232303107
5152,0.232690548
5153,0.228246336
5154,0.20032881
5155,0.152384093
5156,0.152475081
5157,0.322564263
5158,0.524490732
5159,0.656774111
5160,0.597589798
5161,0.144299193
5162,0.153009256
5163,0.156982693
5164,0.149678258
5165,0.145399278
5166,0.145399278
5167,0.1377759
5168,0.151953645
5169,0.17327378
5170,0.175573501
5171,0.175573501
5172,0.184744327
5173,0.202041971
5174,0.208087941
5175,0.213345927
5176,0.213345927
5177,0.211592332
5178,0.217115476
5179,0.240934527
5180,0.240934527
5181,0.172112809
5182,0.165988596
5183,0.229513965
5184,0.383848637
5185,0.679502834
5186,0.679502834
5187,0.151539916
5188,0.185456285
5189,0.138407984
5190,0.1384852
5191,0.150602747
5192,0.148108383
5193,0.121020428
5194,0.135542395
5195,0.156460299
5196,0.171255562
5197,0.179457364
5198,0.179457364
5199,0.183414314
5200,0.192775596
5201,0.204013491
5202,0.210086746
5203,0.226773686
5204,0.230958386
5205,0.240357726
5206,0.240357726
5207,0.18531568
5208,0.155528067
5209,0.301930633
5210,0.515032001
5211,0.678855607
5212,0.593058898
5213,0.167594289
5214,0.167594289
5215,0.146422744
5216,0.149632495
5217,0.150122785
5218,0.146054623
5219,0.139340136
5220,0.150175478
5221,0.175573501
5222,0.177192797
5223,0.181620637
5224,0.181620637
5225,0.18280166
5226,0.191120918
5227,0.199242523
5228,0.206081683
5229,0.224470913
5230,0.229131974
5231,0.229209013
5232,0.221661602
5233,0.172302367
5234,0.178576988
5235,0.405698078
5236,0.64885078
5237,0.684967364
5238,0.388863201
5239,0.174661872
5240,0.174661872
5241,0.145270276
5242,0.147913143
5243,0.143984058
5244,0.129171073
5245,0.137416419
5246,0.145529302
5247,0.175573501
5248,0.175573501
5249,0.177664116
5250,0.179725941
5251,0.196201556
5252,0.200368038
5253,0.202570972
5254,0.208477267
5255,0.230521094
5256,0.235784351
5257,0.235163069
5258,0.223042265
5259,0.171840538
5260,0.162868777
5261,0.400807743
5262,0.672043355
5263,0.678356421
5264,0.366952756
5265,0.136064159
5266,0.134316937
5267,0.150826587
5268,0.150826587
5269,0.14755886
5270,0.145560459
5271,0.159285395
5272,0.171901715
5273,0.199044706
5274,0.199044706
5275,0.188535111
5276,0.172816466
5277,0.181948289
5278,0.182174723
5279,0.179952586
5280,0.189128494
5281,0.221104144
5282,0.226076111
5283,0.224636016
5284,0.20749958
5285,0.16895921
5286,0.170619872
5287,0.403031109
5288,0.602903222
5289,0.662922639
5290,0.38640648
5291,0.11375918
5292,0.11375918
5293,0.136638959
5294,0.136638959
5295,0.096727815
5296,0.096727815
5297,0.118179234
5298,0.146514275
5299,0.204266608
5300,0.212463541
5301,0.211351466
5302,0.213142658
5303,0.220783943
5304,0.22905296
5305,0.23910398
5306,0.293814235
5307,0.653860063
5308,0.653860063
5309,0.206113001
5310,0.108711208
5311,0.112316344
5312,0.119963038
5313,0.126559345
5314,0.134711976
5315,0.180674076
5316,0.19742617
5317,0.21982795
5318,0.227854608
5319,0.239055192
5320,0.240172451
5321,0.237260861
5322,0.226306262
5323,0.184618777
5324,0.168737087
5325,0.14739953
5326,0.139920523
5327,0.142194033
5328,0.142194033
5329,0.156576718
5330,0.173319716
5331,0.197960632
5332,0.201557452
5333,0.22671316
5334,0.246892805
5335,0.295013158
5336,0.308456955
5337,0.625373686
5338,0.625373686
5339,0.172365668
5340,0.186203232
5341,0.175573501
5342,0.171889478
5343,0.174517808
5344,0.174517808
5345,0.176517306
5346,0.176517306
5347,0.170487821
5348,0.166311075
5349,0.169963878
5350,0.175573501
5351,0.175573501
5352,0.175573501
5353,0.201058654
5354,0.203304305
5355,0.200802395
5356,0.197111365
5357,0.17697445
5358,0.175612184
5359,0.190317952
5360,0.201744643
5361,0.205141931
5362,0.203954904
5363,0.160024098
5364,0.16792111
5365,0.287159833
5366,0.475476775
5367,0.573461597
5368,0.390206803
5369,0.19336424
5370,0.188848973
5371,0.153363244
5372,0.156614888
5373,0.155721403
5374,0.146777392
5375,0.157094154
5376,0.158902598
5377,0.165996336
5378,0.167122513
5379,0.175573501
5380,0.175950242
5381,0.202025788
5382,0.211869909
5383,0.213829926
5384,0.210678576
5385,0.193454652
5386,0.201728694
5387,0.222383113
5388,0.22927059
5389,0.225551278
5390,0.195922773
5391,0.144445663
5392,0.158658679
5393,0.294866095
5394,0.510520755
5395,0.517010085
5396,0.209284165
5397,0.176728244
5398,0.175110902
5399,0.165728305
5400,0.171687456
5401,0.168633905
5402,0.155818173
5403,0.163035406
5404,0.163881747
5405,0.174418757
5406,0.175573501
5407,0.180313563
5408,0.187083852
5409,0.191103631
5410,0.192167293
5411,0.197009481
5412,0.20342955
5413,0.22492782
5414,0.227866308
5415,0.225557567
5416,0.210844096
5417,0.162873217
5418,0.173456855
5419,0.29097846
5420,0.449903066
5421,0.466975975
5422,0.315514242
5423,0.098756891
5424,0.1035277
5425,0.132848072
5426,0.132848072
5427,0.113440241
5428,0.115051914
5429,0.139405505
5430,0.154867225
5431,0.180650865
5432,0.182457531
5433,0.179837463
5434,0.17262613
5435,0.181229423
5436,0.181229423
5437,0.181055306
5438,0.191676213
5439,0.221454782
5440,0.223151109
5441,0.218863947
5442,0.201377483
5443,0.173986962
5444,0.18863781
5445,0.374202966
5446,0.55423581
5447,0.570631536
5448,0.240585475
5449,0.158036278
5450,0.158036278
5451,0.162794703
5452,0.162794703
5453,0.139953748
5454,0.132423526
5455,0.140380445
5456,0.157910177
5457,0.175573501
5458,0.180538219
5459,0.194683435
5460,0.206387843
5461,0.219470653
5462,0.236195869
5463,0.235252868
5464,0.23998995
5465,0.346163668
5466,0.562958622
5467,0.616492868
5468,0.534819127
5469,0.141723841
5470,0.141723841
5471,0.133635995
5472,0.1244501
5473,0.127023172
5474,0.117045564
5475,0.162861677
5476,0.182438772
5477,0.220669579
5478,0.23204428
5479,0.23858886
5480,0.23858886
5481,0.23074733
5482,0.226389617
5483,0.214248848
5484,0.199806663
5485,0.167690795
5486,0.158130118
5487,0.148304997
5488,0.141620098
5489,0.153740058
5490,0.163634891
5491,0.193016883
5492,0.212116378
5493,0.223124956
5494,0.223124956
5495,0.1784436
5496,0.212877164
5497,0.509538705
5498,0.571668606
5499,0.421048145
5500,0.167557141
5501,0.174471259
5502,0.175260792
5503,0.17032656
5504,0.163193898
5505,0.161907701
5506,0.154889399
5507,0.170207562
5508,0.176878487
5509,0.178027017
5510,0.17712962
5511,0.175573501
5512,0.175573501
5513,0.206543502
5514,0.22500813
5515,0.228455798
5516,0.226477871
5517,0.197764906
5518,0.200140875
5519,0.208973825
5520,0.213574946
5521,0.212735352
5522,0.193174856
5523,0.148426397
5524,0.154758525
5525,0.3320263
5526,0.498729846
5527,0.558402437
5528,0.283702275
5529,0.16730651
5530,0.16730651
5531,0.164522302
5532,0.176603836
5533,0.173268596
5534,0.147463962
5535,0.151396921
5536,0.154980414
5537,0.174013681
5538,0.175573501
5539,0.175573501
5540,0.181498634
5541,0.19661122
5542,0.197904979
5543,0.197536821
5544,0.197536821
5545,0.212575245
5546,0.225246903
5547,0.226527338
5548,0.221745804
5549,0.183901721
5550,0.169152769
5551,0.225464561
5552,0.34962278
5553,0.574200318
5554,0.574200318
5555,0.130765451
5556,0.130765451
5557,0.136951334
5558,0.136951334
5559,0.119501517
5560,0.104060377
5561,0.102670167
5562,0.116136712
5563,0.164564551
5564,0.175573501
5565,0.175573501
5566,0.175573501
5567,0.203625962
5568,0.20820845
5569,0.206237479
5570,0.194745753
5571,0.192258421
5572,0.204862079
5573,0.242639313
5574,0.244766061
5575,0.232022063
5576,0.19496239
5577,0.148337907
5578,0.195054418
5579,0.552745854
5580,0.566795204
5581,0.205345566
5582,0.200180192
5583,0.195497894
5584,0.175573501
5585,0.145786212
5586,0.145786212
5587,0.122819183
5588,0.127347199
5589,0.144447823
5590,0.152465674
5591,0.168176102
5592,0.176386218
5593,0.192488251
5594,0.192752501
5595,0.191396692
5596,0.186755971
5597,0.180230249
5598,0.189348516
5599,0.220140226
5600,0.221641966
5601,0.216177952
5602,0.194701286
5603,0.144922589
5604,0.131166972
5605,0.249955921
5606,0.42841566
5607,0.559742411
5608,0.499254395
5609,0.153137892
5610,0.169406993
5611,0.173154833
5612,0.168694638
5613,0.137732144
5614,0.137732144
5615,0.133129812
5616,0.146659963
5617,0.17071542
5618,0.175573501
5619,0.175573501
5620,0.176289637
5621,0.191340634
5622,0.194200961
5623,0.200710052
5624,0.200806601
5625,0.200176387
5626,0.207048725
5627,0.222285341
5628,0.222285341
5629,0.213659715
5630,0.187205678
5631,0.15951639
5632,0.184073074
5633,0.456014752
5634,0.605646301
5635,0.574115229
5636,0.133263775
5637,0.1245876
5638,0.128876219
5639,0.150964788
5640,0.146432011
5641,0.13074501
5642,0.129942211
5643,0.144785052
5644,0.164156358
5645,0.175573501
5646,0.175749235
5647,0.187871043
5648,0.200655334
5649,0.210837703
5650,0.210837703
5651,0.199653386
5652,0.195419667
5653,0.207619108
5654,0.21498519
5655,0.218779336
5656,0.216622169
5657,0.168689528
5658,0.136949351
5659,0.22497643
5660,0.359510872
5661,0.557567177
5662,0.548021284
5663,0.225677828
5664,0.227245909
5665,0.180350873
5666,0.164641925
5667,0.169048664
5668,0.156566269
5669,0.146077914
5670,0.154914975
5671,0.155712701
5672,0.158472311
5673,0.178540468
5674,0.193246449
5675,0.212621125
5676,0.216155172
5677,0.215430445
5678,0.21427236
5679,0.185790622
5680,0.194890226
5681,0.197963209
5682,0.195841849
5683,0.143347614
5684,0.112683864
5685,0.158639933
5686,0.259542826
5687,0.649347389
5688,0.649347389
5689,0.175573501
5690,0.144774453
5691,0.141748358
5692,0.132846845
5693,0.144880761
5694,0.15054844
5695,0.156614525
5696,0.159050182
5697,0.169408637
5698,0.173608203
5699,0.175573501
5700,0.175573501
5701,0.202573111
5702,0.217087511
5703,0.22122153
5704,0.220321149
5705,0.206430828
5706,0.205826268
5707,0.212663248
5708,0.217644222
5709,0.217008064
5710,0.205720643
5711,0.150758833
5712,0.145406845
5713,0.493064874
5714,0.651126518
5715,0.613872498
5716,0.154266874
5717,0.186936852
5718,0.179189533
5719,0.149849844
5720,0.144285996
5721,0.140468325
5722,0.131125099
5723,0.132575994
5724,0.140026327
5725,0.169271889
5726,0.172893219
5727,0.178943765
5728,0.191501954
5729,0.220544811
5730,0.224561993
5731,0.224122866
5732,0.220785302
5733,0.234228855
5734,0.237738441
5735,0.236930567
5736,0.225274786
5737,0.171750816
5738,0.154997002
5739,0.266874945
5740,0.435318493
5741,0.551652037
5742,0.523547777
5743,0.180206643
5744,0.180206643
5745,0.175104137
5746,0.175104137
5747,0.135641094
5748,0.120252021
5749,0.115615909
5750,0.13063016
5751,0.166695157
5752,0.174881196
5753,0.175573501
5754,0.175573501
5755,0.19020508
5756,0.19020508
5757,0.188242936
5758,0.179491139
5759,0.189805167
5760,0.199104813
5761,0.226522471
5762,0.231217946
5763,0.23047119
5764,0.215383739
5765,0.172156803
5766,0.163803952
5767,0.525431429
5768,0.670163701
5769,0.644048918
5770,0.21782337
5771,0.177814698
5772,0.177814698
5773,0.14161839
5774,0.14161839
5775,0.144281679
5776,0.151012992
5777,0.155121135
5778,0.159132335
5779,0.167672268
5780,0.175573501
5781,0.184829665
5782,0.188498337
5783,0.191372178
5784,0.191372178
5785,0.187544289
5786,0.194069904
5787,0.214280848
5788,0.22182995
5789,0.22737595
5790,0.22701546
5791,0.177116688
5792,0.154755457
5793,0.189298526
5794,0.324529369
5795,0.598931449
5796,0.598931449
5797,0.158636957
5798,0.168323451
5799,0.151870743
5800,0.12129569
5801,0.144847781
5802,0.144847781
5803,0.134624429
5804,0.151144043
5805,0.169539715
5806,0.175573501
5807,0.175573501
5808,0.176226553
5809,0.188037213
5810,0.195839287
5811,0.200498196
5812,0.200498196
5813,0.197365134
5814,0.208451422
5815,0.223029646
5816,0.223029646
5817,0.206417063
5818,0.184863852
5819,0.156636468
5820,0.189466476
5821,0.497521149
5822,0.579530683
5823,0.403450291
5824,0.109549265
5825,0.124124059
5826,0.139309553
5827,0.14335104
5828,0.135097663
5829,0.129200428
5830,0.130709073
5831,0.155224249
5832,0.168994799
5833,0.175637054
5834,0.175637054
5835,0.175573501
5836,0.175573501
5837,0.175573501
5838,0.175573501
5839,0.184649305
5840,0.185420229
5841,0.205331737
5842,0.226294631
5843,0.240833507
5844,0.240833507
5845,0.214321112
5846,0.192286099
5847,0.188512986
5848,0.286450841
5849,0.725512737
5850,0.751520089
5851,0.340609214
5852,0.123239811
5853,0.121990427
5854,0.134057424
5855,0.131585731
5856,0.119741414
5857,0.116429629
5858,0.107588307
5859,0.149095942
5860,0.166246386
5861,0.175573501
5862,0.175573501
5863,0.175573501
5864,0.176189786
5865,0.186861067
5866,0.189450635
5867,0.193839552
5868,0.198780598
5869,0.221736478
5870,0.239143368
5871,0.242230159
5872,0.237608382
5873,0.180231074
5874,0.170948231
5875,0.320486765
5876,0.573124203
5877,0.678397766
5878,0.573151879
5879,0.140517554
5880,0.124603548
5881,0.140423752
5882,0.152301386
5883,0.14859929
5884,0.128586666
5885,0.135747848
5886,0.142702787
5887,0.175573501
5888,0.178106104
5889,0.179409055
5890,0.176032728
5891,0.18137706
5892,0.192995366
5893,0.204522717
5894,0.214807654
5895,0.238388637
5896,0.246064172
5897,0.247532846
5898,0.231644437
5899,0.181640019
5900,0.175573501
5901,0.359616493
5902,0.603459935
5903,0.601289893
5904,0.30162615
5905,0.124823679
5906,0.124823679
5907,0.118807048
5908,0.118491548
5909,0.099666635
5910,0.086175834
5911,0.115704878
5912,0.134188421
5913,0.175573501
5914,0.175573501
5915,0.175573501
5916,0.175573501
5917,0.175573501
5918,0.175573501
5919,0.175573501
5920,0.175573501
5921,0.184997827
5922,0.189730438
5923,0.216604433
5924,0.217240575
5925,0.202347296
5926,0.193292986
5927,0.215306186
5928,0.295797806
5929,0.73494943
5930,0.758209164
5931,0.299897216
5932,0.169833622
5933,0.167134142
5934,0.149078385
5935,0.146457494
5936,0.140178369
5937,0.10592438
5938,0.118683778
5939,0.158305141
5940,0.171387121
5941,0.175573501
5942,0.175573501
5943,0.175573501
5944,0.175573501
5945,0.175573501
5946,0.175573501
5947,0.190152106
5948,0.196973244
5949,0.210454324
5950,0.211384143
5951,0.210565968
5952,0.204369832
5953,0.19446827
5954,0.234738847
5955,0.560317414
5956,0.560317414
5957,0.272607171
5958,0.162216546
5959,0.150703776
5960,0.150703776
5961,0.142897517
5962,0.145511751
5963,0.15276338
5964,0.161557731
5965,0.169829126
5966,0.173251454
5967,0.175573501
5968,0.175573501
5969,0.178277656
5970,0.17861402
5971,0.187842098
5972,0.193381806
5973,0.200387187
5974,0.207934801
5975,0.223424656
5976,0.230138868
5977,0.232970295
5978,0.22764032
5979,0.170167715
5980,0.168524054
5981,0.234806082
5982,0.33725745
5983,0.5858983
5984,0.5858983
5985,0.141146099
5986,0.143442176
5987,0.121600654
5988,0.132826184
5989,0.149477533
5990,0.149472516
5991,0.140258424
5992,0.149680369
5993,0.169589477
5994,0.175573501
5995,0.175573501
5996,0.175573501
5997,0.175573501
5998,0.175573501
5999,0.181385858
6000,0.184277788
6001,0.206399674
6002,0.226304928
6003,0.246061822
6004,0.246061822
6005,0.206693914
6006,0.17732982
6007,0.208757425
6008,0.25815759
6009,0.473925002
6010,0.474646867
6011,0.147925434
6012,0.134609287
6013,0.145794661
6014,0.18305961
6015,0.182205774
6016,0.167007541
6017,0.153972748
6018,0.143942494
6019,0.164493133
6020,0.174349779
6021,0.175573501
6022,0.175573501
6023,0.175573501
6024,0.175573501
6025,0.175794862
6026,0.175794862
6027,0.178464172
6028,0.194708035
6029,0.216253692
6030,0.235133772
6031,0.236208875
6032,0.22572464
6033,0.198306867
6034,0.20073696
6035,0.363357728
6036,0.600568542
6037,0.672858781
6038,0.511147055
6039,0.169941088
6040,0.158293198
6041,0.137010803
6042,0.131202664
6043,0.129481936
6044,0.115524288
6045,0.125249017
6046,0.139340711
6047,0.175573501
6048,0.175573501
6049,0.175573501
6050,0.175573501
6051,0.175573501
6052,0.175573501
6053,0.175573501
6054,0.175573501
6055,0.1853644
6056,0.197900822
6057,0.222112002
6058,0.229644056
6059,0.229922419
6060,0.223365522
6061,0.178276807
6062,0.195574824
6063,0.342550011
6064,0.578094649
6065,0.63871606
6066,0.514913447
6067,0.161126598
6068,0.146284076
6069,0.176030605
6070,0.178800549
6071,0.16347215
6072,0.140910405
6073,0.130378048
6074,0.14169697
6075,0.180067619
6076,0.18252392
6077,0.182076807
6078,0.175395355
6079,0.175573501
6080,0.177726917
6081,0.178540419
6082,0.177233082
6083,0.189048821
6084,0.201730767
6085,0.246385104
6086,0.248391979
6087,0.228645041
6088,0.197331881
6089,0.194871782
6090,0.238312739
6091,0.491004067
6092,0.582465463
6093,0.389758101
6094,0.160330432
6095,0.170498039
6096,0.152868174
6097,0.132947495
6098,0.132947495
6099,0.112544737
6100,0.127687423
6101,0.157328648
6102,0.167343822
6103,0.175573501
6104,0.175573501
6105,0.175573501
6106,0.175573501
6107,0.175573501
6108,0.175573501
6109,0.177904989
6110,0.194139967
6111,0.24129975
6112,0.246831694
6113,0.249284267
6114,0.249227065
6115,0.199038302
6116,0.199406353
6117,0.328048239
6118,0.554800811
6119,0.694295137
6120,0.525203695
6121,0.11380316
6122,0.136570778
6123,0.161356517
6124,0.161356517
6125,0.154629667
6126,0.154629667
6127,0.151721572
6128,0.159781178
6129,0.175573501
6130,0.175573501
6131,0.175573501
6132,0.175573501
6133,0.175573501
6134,0.175573501
6135,0.185800385
6136,0.192876956
6137,0.216793605
6138,0.229470448
6139,0.239537108
6140,0.23899378
6141,0.184379273
6142,0.177545867
6143,0.263719268
6144,0.419680397
6145,0.752733089
6146,0.752733089
6147,0.147620288
6148,0.165767699
6149,0.146526978
6150,0.147027994
6151,0.156133327
6152,0.155539584
6153,0.124198253
6154,0.131352854
6155,0.158060934
6156,0.175573501
6157,0.17612156
6158,0.176279571
6159,0.175573501
6160,0.189311018
6161,0.199772958
6162,0.201169655
6163,0.214197909
6164,0.22725595
6165,0.2379142
6166,0.2379142
6167,0.21350888
6168,0.188753819
6169,0.172814609
6170,0.249930189
6171,0.633443116
6172,0.686384348
6173,0.309571683
6174,0.141109002
6175,0.161198729
6176,0.176911
6177,0.176544541
6178,0.154705597
6179,0.1455766
6180,0.154270916
6181,0.189737395
6182,0.202262013
6183,0.202956767
6184,0.198349378
6185,0.162264894
6186,0.181465191
6187,0.184032659
6188,0.186505183
6189,0.188269769
6190,0.188810657
6191,0.197353354
6192,0.20425956
6193,0.206060576
6194,0.203660427
6195,0.162909511
6196,0.138962314
6197,0.178766754
6198,0.339441892
6199,0.647547162
6200,0.647547162
6201,0.200922847
6202,0.186008288
6203,0.16689682
6204,0.164686788
6205,0.157759873
6206,0.139124913
6207,0.148223803
6208,0.149035535
6209,0.155224904
6210,0.160667222
6211,0.171159915
6212,0.175573501
6213,0.175573501
6214,0.183248449
6215,0.191186953
6216,0.192176503
6217,0.191615393
6218,0.190139396
6219,0.20938406
6220,0.222478698
6221,0.225382096
6222,0.220073287
6223,0.164866167
6224,0.177801265
6225,0.389322921
6226,0.691150182
6227,0.715659374
6228,0.386028389
6229,0.167424554
6230,0.167424554
6231,0.146761964
6232,0.151898119
6233,0.148561916
6234,0.135285212
6235,0.143813698
6236,0.149368824
6237,0.175573501
6238,0.175573501
6239,0.175573501
6240,0.182116955
6241,0.205714018
6242,0.209849273
6243,0.207801854
6244,0.196452529
6245,0.205492291
6246,0.214056048
6247,0.21867065
6248,0.21867065
6249,0.183128393
6250,0.167094286
6251,0.258704546
6252,0.444362485
6253,0.702755765
6254,0.697882925
6255,0.152004195
6256,0.159158739
6257,0.162039354
6258,0.162039354
6259,0.14760442
6260,0.141275912
6261,0.136218792
6262,0.152797637
6263,0.192608719
6264,0.192608719
6265,0.18310444
6266,0.172745961
6267,0.20087914
6268,0.201830459
6269,0.198832385
6270,0.19250679
6271,0.18845013
6272,0.189995936
6273,0.19565098
6274,0.19565098
6275,0.182997471
6276,0.160153251
6277,0.133122697
6278,0.197165038
6279,0.573293791
6280,0.615118671
6281,0.432351551
6282,0.189782436
6283,0.174029067
6284,0.15729031
6285,0.149218621
6286,0.149218621
6287,0.12830225
6288,0.130642007
6289,0.142086271
6290,0.15880014
6291,0.177476869
6292,0.178397061
6293,0.175650987
6294,0.175573501
6295,0.182573982
6296,0.185082019
6297,0.19090279
6298,0.201479158
6299,0.227924494
6300,0.236249011
6301,0.240000976
6302,0.239717979
6303,0.206718275
6304,0.183656866
6305,0.241922454
6306,0.441291761
6307,0.668082223
6308,0.668082223
6309,0.14492455
6310,0.157328502
6311,0.14473869
6312,0.122084682
6313,0.139505639
6314,0.139347448
6315,0.120145696
6316,0.139976984
6317,0.166221861
6318,0.175573501
6319,0.18112147
6320,0.18112147
6321,0.175573501
6322,0.184293634
6323,0.198140728
6324,0.199660866
6325,0.199665491
6326,0.206243372
6327,0.219648782
6328,0.227807692
6329,0.233076306
6330,0.228271765
6331,0.159314736
6332,0.195967126
6333,0.515781702
6334,0.747796989
6335,0.698650552
6336,0.209171425
6337,0.146670007
6338,0.136987194
6339,0.127437829
6340,0.100723277
6341,0.074869632
6342,0.078731719
6343,0.127360205
6344,0.155770201
6345,0.176015376
6346,0.176015376
6347,0.175573501
6348,0.184432906
6349,0.190366643
6350,0.190366643
6351,0.181712178
6352,0.189336056
6353,0.205069947
6354,0.216024887
6355,0.219862091
6356,0.218898143
6357,0.173189791
6358,0.168003239
6359,0.305420502
6360,0.552280352
6361,0.793230411
6362,0.679396627
6363,0.218260587
6364,0.218260587
6365,0.196425437
6366,0.185285449
6367,0.183497598
6368,0.168173348
6369,0.179928949
6370,0.183731946
6371,0.182005276
6372,0.180142554
6373,0.183163929
6374,0.187787787
6375,0.18982025
6376,0.189671569
6377,0.181221627
6378,0.175573501
6379,0.16790609
6380,0.177943778
6381,0.180701294
6382,0.180361558
6383,0.154843086
6384,0.108101788
6385,0.158994729
6386,0.288979983
6387,0.708629984
6388,0.708629984
6389,0.19106638
6390,0.19106638
6391,0.192029075
6392,0.195805379
6393,0.182774522
6394,0.180640782
6395,0.178196615
6396,0.175573501
6397,0.176581324
6398,0.176581324
6399,0.169603657
6400,0.163770389
6401,0.169237765
6402,0.171731857
6403,0.172522349
6404,0.171949806
6405,0.176927909
6406,0.183215808
6407,0.20023377
6408,0.202602618
6409,0.199946047
6410,0.182226237
6411,0.118083172
6412,0.154301959
6413,0.388804046
6414,0.72354631
6415,0.758517059
6416,0.426112734
6417,0.152271281
6418,0.116599145
6419,0.135405445
6420,0.135405445
6421,0.112604318
6422,0.086817385
6423,0.071335177
6424,0.102807486
6425,0.175573501
6426,0.175573501
6427,0.175573501
6428,0.175573501
6429,0.175573501
6430,0.175573501
6431,0.175573501
6432,0.175573501
6433,0.175573501
6434,0.175573501
6435,0.181462302
6436,0.191426799
6437,0.191559304
6438,0.182423618
6439,0.206637803
6440,0.262533466
6441,0.805904965
6442,0.805904965
6443,0.145043068
6444,0.177680379
6445,0.179253402
6446,0.157636341
6447,0.156532737
6448,0.156532737
6449,0.119716668
6450,0.131088602
6451,0.168719322
6452,0.175573501
6453,0.175573501
6454,0.175573501
6455,0.186249771
6456,0.193596181
6457,0.199993473
6458,0.201689828
6459,0.214474101
6460,0.226736184
6461,0.253880052
6462,0.253880052
6463,0.244399327
6464,0.218898581
6465,0.169162036
6466,0.204679782
6467,0.635776921
6468,0.635776921
6469,0.198936849
6470,0.232513414
6471,0.207465302
6472,0.187927299
6473,0.175573501
6474,0.175573501
6475,0.175573501
6476,0.175573501
6477,0.175573501
6478,0.175573501
6479,0.175573501
6480,0.175573501
6481,0.175573501
6482,0.175573501
6483,0.175573501
6484,0.175573501
6485,0.126615299
6486,0.127840761
6487,0.132099697
6488,0.130787896
6489,0.086739572
6490,0.082366916
6491,0.084394651
6492,0.114811522
6493,0.571538445
6494,0.599720095
6495,0.312937591
6496,0.079304171
6497,0.085803978
6498,0.125765786
6499,0.140466369
6500,0.134694314
6501,0.132813199
6502,0.132813199
6503,0.147161647
6504,0.168579992
6505,0.175573501
6506,0.176383831
6507,0.187086558
6508,0.187086558
6509,0.175573501
6510,0.175573501
6511,0.175573501
6512,0.18036149
6513,0.199357228
6514,0.223399446
6515,0.237323479
6516,0.237323479
6517,0.224599477
6518,0.212038941
6519,0.336802295
6520,0.607788802
6521,0.932654057
6522,0.902185484
6523,0.198369091
6524,0.198369091
6525,0.187589747
6526,0.219120239
6527,0.217437003
6528,0.184135344
6529,0.150087111
6530,0.147241071
6531,0.163583203
6532,0.168217572
6533,0.167453012
6534,0.161702441
6535,0.170746134
6536,0.183444667
6537,0.195728473
6538,0.196523336
6539,0.213068592
6540,0.213068592
6541,0.218242663
6542,0.218371933
6543,0.203846968
6544,0.184274846
6545,0.18245062
6546,0.247155446
6547,0.764102273
6548,0.764102273
6549,0.312629707
6550,0.175573501
6551,0.149026379
6552,0.149026379
6553,0.103549253
6554,0.111032521
6555,0.110648998
6556,0.120345333
6557,0.156586744
6558,0.167638538
6559,0.175573501
6560,0.175573501
6561,0.175573501
6562,0.175573501
6563,0.175573501
6564,0.175573501
6565,0.175573501
6566,0.175573501
6567,0.191441473
6568,0.197500622
6569,0.197725799
6570,0.188415171
6571,0.182709704
6572,0.241170461
6573,0.54719572
6574,0.740198915
6575,0.688845282
6576,0.26077999
6577,0.209156309
6578,0.192606771
6579,0.186518591
6580,0.186518591
6581,0.15280679
6582,0.126328388
6583,0.144194697
6584,0.149594852
6585,0.162947421
6586,0.175573501
6587,0.175573501
6588,0.175573501
6589,0.180555027
6590,0.189816273
6591,0.19093303
6592,0.192360566
6593,0.225348499
6594,0.227818473
6595,0.223458543
6596,0.216664887
6597,0.180014272
6598,0.175448811
6599,0.246644401
6600,0.379845012
6601,0.529107983
6602,0.494072634
6603,0.182293811
6604,0.182293811
6605,0.193940214
6606,0.193940214
6607,0.176458142
6608,0.176458142
6609,0.170543099
6610,0.167105712
6611,0.161426862
6612,0.158844744
6613,0.154794556
6614,0.157398388
6615,0.170908601
6616,0.175573501
6617,0.179781869
6618,0.185125369
6619,0.205008578
6620,0.211982923
6621,0.220445193
6622,0.220445193
6623,0.210459035
6624,0.193760538
6625,0.167899315
6626,0.191534498
6627,0.435298611
6628,0.436429405
6629,0.276064527
6630,0.119806075
6631,0.134265026
6632,0.137434294
6633,0.176080267
6634,0.176080267
6635,0.164968405
6636,0.164968405
6637,0.153007879
6638,0.168391409
6639,0.175573501
6640,0.175573501
6641,0.175573501
6642,0.175573501
6643,0.187755168
6644,0.187755168
6645,0.175391007
6646,0.175538965
6647,0.193058656
6648,0.197421119
6649,0.207621357
6650,0.207621357
6651,0.177465635
6652,0.170902106
6653,0.250690844
6654,0.382009807
6655,0.485122154
6656,0.485122154
6657,0.164305564
6658,0.176233005
6659,0.147255701
6660,0.152078907
6661,0.159982859
6662,0.156284299
6663,0.134099029
6664,0.143015102
6665,0.175573501
6666,0.175573501
6667,0.175573501
6668,0.175573501
6669,0.175573501
6670,0.175573501
6671,0.175573501
6672,0.175573501
6673,0.184292564
6674,0.201932112
6675,0.218421062
6676,0.221603943
6677,0.219495898
6678,0.184673965
6679,0.166258064
6680,0.21635398
6681,0.455676197
6682,0.483172857
6683,0.306548756
6684,0.133809891
6685,0.146368218
6686,0.152210036
6687,0.149668693
6688,0.139890233
6689,0.145284268
6690,0.147376197
6691,0.157871593
6692,0.172188274
6693,0.175573501
6694,0.175573501
6695,0.175573501
6696,0.175573501
6697,0.175573501
6698,0.175573501
6699,0.175573501
6700,0.175573501
6701,0.187105787
6702,0.203578302
6703,0.208360105
6704,0.203228515
6705,0.165819737
6706,0.18924519
6707,0.354254104
6708,0.543767427
6709,0.569370781
6710,0.270703993
6711,0.15034268
6712,0.15034268
6713,0.140774858
6714,0.157281582
6715,0.15339999
6716,0.134466962
6717,0.140885492
6718,0.149353204
6719,0.175573501
6720,0.175573501
6721,0.175573501
6722,0.175573501
6723,0.175573501
6724,0.175573501
6725,0.175573501
6726,0.175573501
6727,0.175573501
6728,0.175573501
6729,0.19204663
6730,0.195889567
6731,0.188682578
6732,0.176643834
6733,0.212327653
6734,0.274552069
6735,0.509216244
6736,0.509216244
6737,0.100808017
6738,0.12937274
6739,0.174299798
6740,0.174299798
6741,0.149126196
6742,0.146949523
6743,0.136917044
6744,0.130957031
6745,0.163766153
6746,0.175573501
6747,0.175573501
6748,0.175573501
6749,0.175573501
6750,0.175573501
6751,0.175573501
6752,0.175573501
6753,0.175573501
6754,0.175573501
6755,0.175573501
6756,0.182594533
6757,0.186466245
6758,0.185964228
6759,0.175573501
6760,0.185699635
6761,0.364369562
6762,0.502023842
6763,0.505209866
6764,0.270823433
6765,0.15343416
