date,OT
1901/1/1 0:00,999.103381
1901/1/1 1:00,1013.616397
1901/1/1 2:00,1007.899214
1901/1/1 3:00,1008.501581
1901/1/1 4:00,1012.952033
1901/1/1 5:00,1014.147022
1901/1/1 6:00,1008.041435
1901/1/1 7:00,1007.333241
1901/1/1 8:00,1001.330256
1901/1/1 9:00,999.9141181
1901/1/1 10:00,1001.314402
1901/1/1 11:00,997.8147604
1901/1/1 12:00,998.4336849
1901/1/1 13:00,994.1256098
1901/1/1 14:00,999.6121729
1901/1/1 15:00,982.4788934
1901/1/1 16:00,972.3946352
1901/1/1 17:00,1005.299603
1901/1/1 18:00,1100.302362
1901/1/1 19:00,1098.915853
1901/1/1 20:00,975.8031606
1901/1/1 21:00,994.2196031
1901/1/1 22:00,988.5289197
1901/1/1 23:00,990.7250625
1901/1/2 0:00,987.9603532
1901/1/2 1:00,990.0631213
1901/1/2 2:00,985.4821121
1901/1/2 3:00,990.211765
1901/1/2 4:00,987.8703979
1901/1/2 5:00,987.7507805
1901/1/2 6:00,986.3489185
1901/1/2 7:00,988.2799895
1901/1/2 8:00,985.3772049
1901/1/2 9:00,986.6410702
1901/1/2 10:00,982.351948
1901/1/2 11:00,984.663807
1901/1/2 12:00,983.850826
1901/1/2 13:00,982.6799498
1901/1/2 14:00,980.09173
1901/1/2 15:00,976.2429605
1901/1/2 16:00,973.2076805
1901/1/2 17:00,968.5157808
1901/1/2 18:00,964.2064593
1901/1/2 19:00,962.2160884
1901/1/2 20:00,960.0002181
1901/1/2 21:00,960.6023482
1901/1/2 22:00,967.2290559
1901/1/2 23:00,974.0973043
1901/1/3 0:00,979.7420207
1901/1/3 1:00,988.7172866
1901/1/3 2:00,992.5161245
1901/1/3 3:00,994.33881
1901/1/3 4:00,991.2537766
1901/1/3 5:00,992.4943316
1901/1/3 6:00,992.074664
1901/1/3 7:00,991.7657698
1901/1/3 8:00,989.5607876
1901/1/3 9:00,991.0550516
1901/1/3 10:00,988.889579
1901/1/3 11:00,984.7650224
1901/1/3 12:00,985.4526393
1901/1/3 13:00,981.5797536
1901/1/3 14:00,983.750868
1901/1/3 15:00,983.5943633
1901/1/3 16:00,983.0594744
1901/1/3 17:00,979.519872
1901/1/3 18:00,982.072917
1901/1/3 19:00,978.5596991
1901/1/3 20:00,980.8983324
1901/1/3 21:00,980.3770075
1901/1/3 22:00,982.429422
1901/1/3 23:00,978.6871596
1901/1/4 0:00,982.7617824
1901/1/4 1:00,980.0270347
1901/1/4 2:00,978.8401005
1901/1/4 3:00,980.7356563
1901/1/4 4:00,987.0071323
1901/1/4 5:00,986.852545
1901/1/4 6:00,988.6765791
1901/1/4 7:00,987.3264036
1901/1/4 8:00,988.5743578
1901/1/4 9:00,981.286154
1901/1/4 10:00,982.5725976
1901/1/4 11:00,978.8691234
1901/1/4 12:00,977.1607371
1901/1/4 13:00,975.9708911
1901/1/4 14:00,979.223222
1901/1/4 15:00,974.6024873
1901/1/4 16:00,975.9008746
1901/1/4 17:00,951.8142732
1901/1/4 18:00,986.5593228
1901/1/4 19:00,1049.534152
1901/1/4 20:00,1117.952646
1901/1/4 21:00,1003.246703
1901/1/4 22:00,926.921414
1901/1/4 23:00,971.2507671
1901/1/5 0:00,961.2124449
1901/1/5 1:00,972.0908084
1901/1/5 2:00,964.5133566
1901/1/5 3:00,971.217224
1901/1/5 4:00,965.6022086
1901/1/5 5:00,970.7206938
1901/1/5 6:00,967.6904391
1901/1/5 7:00,971.7731196
1901/1/5 8:00,968.2668278
1901/1/5 9:00,971.0071308
1901/1/5 10:00,968.9058424
1901/1/5 11:00,969.7831553
1901/1/5 12:00,967.2328533
1901/1/5 13:00,968.282802
1901/1/5 14:00,965.2157439
1901/1/5 15:00,963.4200046
1901/1/5 16:00,959.54993
1901/1/5 17:00,955.6714557
1901/1/5 18:00,950.4831711
1901/1/5 19:00,947.0572163
1901/1/5 20:00,944.1244696
1901/1/5 21:00,942.1426434
1901/1/5 22:00,943.9414084
1901/1/5 23:00,952.0976228
1901/1/6 0:00,962.8384442
1901/1/6 1:00,973.3209628
1901/1/6 2:00,978.4424127
1901/1/6 3:00,985.7975104
1901/1/6 4:00,985.3480574
1901/1/6 5:00,987.4419395
1901/1/6 6:00,985.7926088
1901/1/6 7:00,987.8149079
1901/1/6 8:00,984.6532399
1901/1/6 9:00,987.4174631
1901/1/6 10:00,983.5448906
1901/1/6 11:00,986.7349495
1901/1/6 12:00,983.8726816
1901/1/6 13:00,984.9112022
1901/1/6 14:00,981.0334698
1901/1/6 15:00,983.1233743
1901/1/6 16:00,980.2643203
1901/1/6 17:00,981.9065335
1901/1/6 18:00,979.9159503
1901/1/6 19:00,982.0005902
1901/1/6 20:00,979.1112253
1901/1/6 21:00,982.3823295
1901/1/6 22:00,980.8208891
1901/1/6 23:00,981.5693534
1901/1/7 0:00,981.1321746
1901/1/7 1:00,982.2830447
1901/1/7 2:00,981.0557461
1901/1/7 3:00,983.1989275
1901/1/7 4:00,981.1208166
1901/1/7 5:00,984.2341392
1901/1/7 6:00,984.8455878
1901/1/7 7:00,988.6051939
1901/1/7 8:00,990.850749
1901/1/7 9:00,992.336502
1901/1/7 10:00,987.2394196
1901/1/7 11:00,986.9341872
1901/1/7 12:00,981.8594485
1901/1/7 13:00,983.6127139
1901/1/7 14:00,980.0071074
1901/1/7 15:00,983.6264773
1901/1/7 16:00,978.3543326
1901/1/7 17:00,983.7254261
1901/1/7 18:00,962.7787924
1901/1/7 19:00,964.09431
1901/1/7 20:00,1045.121662
1901/1/7 21:00,1153.665376
1901/1/7 22:00,1037.579416
1901/1/7 23:00,961.4250125
1901/1/8 0:00,981.4399714
1901/1/8 1:00,967.5978447
1901/1/8 2:00,976.7013158
1901/1/8 3:00,967.3874537
1901/1/8 4:00,972.9478136
1901/1/8 5:00,966.8485932
1901/1/8 6:00,972.4134972
1901/1/8 7:00,968.8208046
1901/1/8 8:00,972.6144072
1901/1/8 9:00,968.8224619
1901/1/8 10:00,970.4565237
1901/1/8 11:00,967.7559252
1901/1/8 12:00,968.8335559
1901/1/8 13:00,964.3891451
1901/1/8 14:00,965.9019721
1901/1/8 15:00,960.7463847
1901/1/8 16:00,957.373019
1901/1/8 17:00,950.5279275
1901/1/8 18:00,949.4359117
1901/1/8 19:00,942.9706727
1901/1/8 20:00,943.1211948
1901/1/8 21:00,940.4551074
1901/1/8 22:00,946.4043455
1901/1/8 23:00,955.6429126
1901/1/9 0:00,969.5284626
1901/1/9 1:00,976.8253378
1901/1/9 2:00,983.9918944
1901/1/9 3:00,982.2225166
1901/1/9 4:00,985.687935
1901/1/9 5:00,983.6579197
1901/1/9 6:00,985.4111277
1901/1/9 7:00,984.4879386
1901/1/9 8:00,985.6090472
1901/1/9 9:00,982.1790119
1901/1/9 10:00,982.1591822
1901/1/9 11:00,980.0010987
1901/1/9 12:00,980.0240444
1901/1/9 13:00,975.7195467
1901/1/9 14:00,977.8887714
1901/1/9 15:00,976.1859221
1901/1/9 16:00,977.8377354
1901/1/9 17:00,975.2876962
1901/1/9 18:00,979.0589501
1901/1/9 19:00,974.6553449
1901/1/9 20:00,978.3781358
1901/1/9 21:00,977.8470269
1901/1/9 22:00,979.6804664
1901/1/9 23:00,977.5761105
1901/1/10 0:00,980.6629178
1901/1/10 1:00,976.6494368
1901/1/10 2:00,980.3495609
1901/1/10 3:00,980.0831008
1901/1/10 4:00,985.7264132
1901/1/10 5:00,983.1828088
1901/1/10 6:00,990.7936494
1901/1/10 7:00,989.4269437
1901/1/10 8:00,990.2880584
1901/1/10 9:00,982.4271241
1901/1/10 10:00,984.9275077
1901/1/10 11:00,979.3566127
1901/1/10 12:00,982.0375667
1901/1/10 13:00,976.7453179
1901/1/10 14:00,981.8625914
1901/1/10 15:00,975.4532607
1901/1/10 16:00,973.6573189
1901/1/10 17:00,941.4641349
1901/1/10 18:00,969.3429528
1901/1/10 19:00,1048.273269
1901/1/10 20:00,1145.351289
1901/1/10 21:00,1026.220051
1901/1/10 22:00,961.114779
1901/1/10 23:00,982.5413209
1901/1/11 0:00,969.4290859
1901/1/11 1:00,976.4646595
1901/1/11 2:00,969.8126524
1901/1/11 3:00,974.3553936
1901/1/11 4:00,969.5206745
1901/1/11 5:00,973.8118663
1901/1/11 6:00,971.2802326
1901/1/11 7:00,973.8233894
1901/1/11 8:00,971.2252292
1901/1/11 9:00,971.5412102
1901/1/11 10:00,970.6864469
1901/1/11 11:00,972.8723261
1901/1/11 12:00,969.843862
1901/1/11 13:00,969.7783227
1901/1/11 14:00,964.4925115
1901/1/11 15:00,962.7108035
1901/1/11 16:00,957.2915576
1901/1/11 17:00,952.9108043
1901/1/11 18:00,947.1339376
1901/1/11 19:00,947.8888638
1901/1/11 20:00,947.9031587
1901/1/11 21:00,957.4287822
1901/1/11 22:00,966.4523061
1901/1/11 23:00,975.9966501
1901/1/12 0:00,979.7514852
1901/1/12 1:00,982.2588323
1901/1/12 2:00,984.366204
1901/1/12 3:00,985.2313087
1901/1/12 4:00,984.5862259
1901/1/12 5:00,984.2992676
1901/1/12 6:00,981.7663857
1901/1/12 7:00,981.8488849
1901/1/12 8:00,978.6391796
1901/1/12 9:00,981.1641942
1901/1/12 10:00,978.1095916
1901/1/12 11:00,977.9378389
1901/1/12 12:00,975.89405
1901/1/12 13:00,979.0055473
1901/1/12 14:00,975.1906043
1901/1/12 15:00,977.7559608
1901/1/12 16:00,974.7815202
1901/1/12 17:00,978.0036473
1901/1/12 18:00,975.4685456
1901/1/12 19:00,977.6859633
1901/1/12 20:00,975.3334912
1901/1/12 21:00,978.6691777
1901/1/12 22:00,975.2122529
1901/1/12 23:00,976.9190742
1901/1/13 0:00,975.7267943
1901/1/13 1:00,977.695058
1901/1/13 2:00,977.4620818
1901/1/13 3:00,982.3487454
1901/1/13 4:00,980.5259309
1901/1/13 5:00,988.7446968
1901/1/13 6:00,983.7777604
1901/1/13 7:00,982.2161268
1901/1/13 8:00,977.27359
1901/1/13 9:00,976.940072
1901/1/13 10:00,974.2424503
1901/1/13 11:00,977.6359249
1901/1/13 12:00,969.9132426
1901/1/13 13:00,976.2473565
1901/1/13 14:00,970.5913317
1901/1/13 15:00,977.0035035
1901/1/13 16:00,959.1401109
1901/1/13 17:00,956.5519826
1901/1/13 18:00,1007.179786
1901/1/13 19:00,1099.652275
1901/1/13 20:00,1006.781069
1901/1/13 21:00,944.8545206
1901/1/13 22:00,972.8865016
1901/1/13 23:00,958.5519918
1901/1/14 0:00,971.0964784
1901/1/14 1:00,961.3343212
1901/1/14 2:00,969.5746922
1901/1/14 3:00,963.0807972
1901/1/14 4:00,968.5174561
1901/1/14 5:00,964.7826369
1901/1/14 6:00,971.349412
1901/1/14 7:00,965.938015
1901/1/14 8:00,965.9471157
1901/1/14 9:00,962.7272159
1901/1/14 10:00,967.3048762
1901/1/14 11:00,961.5558802
1901/1/14 12:00,965.6089955
1901/1/14 13:00,961.5284946
1901/1/14 14:00,959.5798234
1901/1/14 15:00,952.1166344
1901/1/14 16:00,948.8158763
1901/1/14 17:00,943.4443817
1901/1/14 18:00,942.4518252
1901/1/14 19:00,939.9029634
1901/1/14 20:00,946.5846815
1901/1/14 21:00,946.6983053
1901/1/14 22:00,954.353721
1901/1/14 23:00,962.2193603
1901/1/15 0:00,972.5665649
1901/1/15 1:00,974.3455977
1901/1/15 2:00,976.4314845
1901/1/15 3:00,975.0529733
1901/1/15 4:00,978.2591714
1901/1/15 5:00,976.2984401
1901/1/15 6:00,975.0243014
1901/1/15 7:00,975.3640378
1901/1/15 8:00,972.864035
1901/1/15 9:00,968.7694253
1901/1/15 10:00,973.5737155
1901/1/15 11:00,969.0814633
1901/1/15 12:00,972.8290465
1901/1/15 13:00,967.9371898
1901/1/15 14:00,971.8728081
1901/1/15 15:00,970.2743983
1901/1/15 16:00,972.2645474
1901/1/15 17:00,970.2683862
1901/1/15 18:00,970.9385783
1901/1/15 19:00,970.5365434
1901/1/15 20:00,972.7564363
1901/1/15 21:00,970.7245524
1901/1/15 22:00,972.220797
1901/1/15 23:00,969.186754
1901/1/16 0:00,972.0445811
1901/1/16 1:00,974.1030701
1901/1/16 2:00,978.9276236
1901/1/16 3:00,976.8220509
1901/1/16 4:00,982.3003763
1901/1/16 5:00,979.7564838
1901/1/16 6:00,979.7115178
1901/1/16 7:00,974.3927558
1901/1/16 8:00,976.4602895
1901/1/16 9:00,971.4715882
1901/1/16 10:00,975.656517
1901/1/16 11:00,970.5217316
1901/1/16 12:00,976.7824471
1901/1/16 13:00,970.9009674
1901/1/16 14:00,978.3814733
1901/1/16 15:00,954.1477135
1901/1/16 16:00,966.7552274
1901/1/16 17:00,1022.916132
1901/1/16 18:00,1115.613845
1901/1/16 19:00,1009.112976
1901/1/16 20:00,946.9618256
1901/1/16 21:00,980.8784515
1901/1/16 22:00,969.4204378
1901/1/16 23:00,976.6700748
1901/1/17 0:00,969.638813
1901/1/17 1:00,975.7133514
1901/1/17 2:00,971.4220586
1901/1/17 3:00,975.1786724
1901/1/17 4:00,973.792404
1901/1/17 5:00,977.5207451
1901/1/17 6:00,974.8542598
1901/1/17 7:00,977.4331534
1901/1/17 8:00,975.912378
1901/1/17 9:00,976.579536
1901/1/17 10:00,973.9825682
1901/1/17 11:00,975.6942332
1901/1/17 12:00,972.8134563
1901/1/17 13:00,969.762271
1901/1/17 14:00,965.2019846
1901/1/17 15:00,964.8390859
1901/1/17 16:00,957.8558961
1901/1/17 17:00,957.4065098
1901/1/17 18:00,950.0187812
1901/1/17 19:00,950.8905751
1901/1/17 20:00,953.6278273
1901/1/17 21:00,965.5483225
1901/1/17 22:00,975.5883943
1901/1/17 23:00,985.7545754
1901/1/18 0:00,989.5947077
1901/1/18 1:00,993.3738281
1901/1/18 2:00,993.8409989
1901/1/18 3:00,995.3740067
1901/1/18 4:00,995.0993416
1901/1/18 5:00,996.4984302
1901/1/18 6:00,991.9223653
1901/1/18 7:00,994.489094
1901/1/18 8:00,991.7104187
1901/1/18 9:00,992.2908493
1901/1/18 10:00,990.4374105
1901/1/18 11:00,991.1654864
1901/1/18 12:00,989.9288639
1901/1/18 13:00,989.8615523
1901/1/18 14:00,989.6503432
1901/1/18 15:00,990.3537044
1901/1/18 16:00,990.3612014
1901/1/18 17:00,992.0321689
1901/1/18 18:00,990.0440747
1901/1/18 19:00,992.3438177
1901/1/18 20:00,989.82091
1901/1/18 21:00,992.8758069
1901/1/18 22:00,992.2070627
1901/1/18 23:00,993.9990932
1901/1/19 0:00,992.4978276
1901/1/19 1:00,994.2787839
1901/1/19 2:00,993.4765377
1901/1/19 3:00,998.8608434
1901/1/19 4:00,998.0554791
1901/1/19 5:00,1004.139028
1901/1/19 6:00,1006.685451
1901/1/19 7:00,1005.29474
1901/1/19 8:00,1000.355493
1901/1/19 9:00,1000.743636
1901/1/19 10:00,997.5097714
1901/1/19 11:00,996.176161
1901/1/19 12:00,996.208931
1901/1/19 13:00,995.7282252
1901/1/19 14:00,995.3869695
1901/1/19 15:00,995.5949347
1901/1/19 16:00,991.3228384
1901/1/19 17:00,969.4587831
1901/1/19 18:00,1006.439157
1901/1/19 19:00,1120.741681
1901/1/19 20:00,1159.743834
1901/1/19 21:00,999.9479736
1901/1/19 22:00,991.7995845
1901/1/19 23:00,988.4941172
1901/1/20 0:00,987.1991918
1901/1/20 1:00,985.1600485
1901/1/20 2:00,984.8815093
1901/1/20 3:00,985.699117
1901/1/20 4:00,984.9820844
1901/1/20 5:00,986.3532052
1901/1/20 6:00,985.3073097
1901/1/20 7:00,987.017508
1901/1/20 8:00,986.7295466
1901/1/20 9:00,987.4255651
1901/1/20 10:00,986.3132905
1901/1/20 11:00,987.1264806
1901/1/20 12:00,985.835837
1901/1/20 13:00,983.2040841
1901/1/20 14:00,981.7194587
1901/1/20 15:00,979.5010473
1901/1/20 16:00,976.4815933
1901/1/20 17:00,972.8636503
1901/1/20 18:00,969.858757
1901/1/20 19:00,965.0146936
1901/1/20 20:00,962.2862964
1901/1/20 21:00,959.1437169
1901/1/20 22:00,963.5235006
1901/1/20 23:00,970.3809798
1901/1/21 0:00,981.5439773
1901/1/21 1:00,991.4059996
1901/1/21 2:00,999.6682826
1901/1/21 3:00,1002.363914
1901/1/21 4:00,1002.924129
1901/1/21 5:00,1001.371545
1901/1/21 6:00,1003.491818
1901/1/21 7:00,1000.742206
1901/1/21 8:00,1003.623061
1901/1/21 9:00,1000.532246
1901/1/21 10:00,1001.36062
1901/1/21 11:00,1002.178701
1901/1/21 12:00,1002.879448
1901/1/21 13:00,1003.958625
1901/1/21 14:00,1003.649004
1901/1/21 15:00,1001.023694
1901/1/21 16:00,999.3795465
1901/1/21 17:00,994.4073576
1901/1/21 18:00,990.2178226
1901/1/21 19:00,989.7116044
1901/1/21 20:00,991.4668832
1901/1/21 21:00,990.5081591
1901/1/21 22:00,992.62163
1901/1/21 23:00,991.3611771
1901/1/22 0:00,994.562584
1901/1/22 1:00,992.6461811
1901/1/22 2:00,996.9523657
1901/1/22 3:00,981.1144529
1901/1/22 4:00,968.4603852
1901/1/22 5:00,1023.98704
1901/1/22 6:00,1134.604391
1901/1/22 7:00,1107.404987
1901/1/22 8:00,979.2952926
1901/1/22 9:00,997.4619539
1901/1/22 10:00,988.6724084
1901/1/22 11:00,993.8218439
1901/1/22 12:00,989.2084402
1901/1/22 13:00,992.000757
1901/1/22 14:00,988.5439554
1901/1/22 15:00,990.7624126
1901/1/22 16:00,988.1987486
1901/1/22 17:00,990.9336769
1901/1/22 18:00,988.303845
1901/1/22 19:00,990.5331841
1901/1/22 20:00,987.3505632
1901/1/22 21:00,990.9122001
1901/1/22 22:00,985.7337765
1901/1/22 23:00,988.351831
1901/1/23 0:00,983.1310212
1901/1/23 1:00,981.1750604
1901/1/23 2:00,978.0583329
1901/1/23 3:00,975.6827011
1901/1/23 4:00,968.7175912
1901/1/23 5:00,965.7192478
1901/1/23 6:00,960.6830805
1901/1/23 7:00,959.9998858
1901/1/23 8:00,961.1589654
1901/1/23 9:00,967.6343238
1901/1/23 10:00,973.7653366
1901/1/23 11:00,981.2246599
1901/1/23 12:00,984.4579437
1901/1/23 13:00,990.9043127
1901/1/23 14:00,993.2759519
1901/1/23 15:00,993.8958289
1901/1/23 16:00,993.5925015
1901/1/23 17:00,995.4572784
1901/1/23 18:00,994.9831958
1901/1/23 19:00,993.7452364
1901/1/23 20:00,992.3849432
1901/1/23 21:00,992.1531496
1901/1/23 22:00,991.2700594
1901/1/23 23:00,990.3088577
1901/1/24 0:00,991.5046118
1901/1/24 1:00,987.2200926
1901/1/24 2:00,989.5440009
1901/1/24 3:00,987.5242592
1901/1/24 4:00,991.3189937
1901/1/24 5:00,987.4198174
1901/1/24 6:00,990.2827787
1901/1/24 7:00,988.1213363
1901/1/24 8:00,989.8670842
1901/1/24 9:00,986.8096363
1901/1/24 10:00,988.4166728
1901/1/24 11:00,990.2696328
1901/1/24 12:00,989.5317208
1901/1/24 13:00,989.239689
1901/1/24 14:00,987.4599022
1901/1/24 15:00,986.6456445
1901/1/24 16:00,986.9192127
1901/1/24 17:00,985.8371683
1901/1/24 18:00,986.8089892
1901/1/24 19:00,987.5286125
1901/1/24 20:00,985.2987795
1901/1/24 21:00,985.6824449
1901/1/24 22:00,983.7168516
1901/1/24 23:00,982.7393012
1901/1/25 0:00,981.5434744
1901/1/25 1:00,982.6617662
1901/1/25 2:00,982.0660586
1901/1/25 3:00,981.3369288
1901/1/25 4:00,984.5588186
1901/1/25 5:00,982.0546574
1901/1/25 6:00,983.5795315
1901/1/25 7:00,987.1286582
1901/1/25 8:00,989.8792071
1901/1/25 9:00,991.2999223
1901/1/25 10:00,991.7256851
1901/1/25 11:00,989.8269613
1901/1/25 12:00,990.4170898
1901/1/25 13:00,984.8663722
1901/1/25 14:00,987.2099907
1901/1/25 15:00,979.8895427
1901/1/25 16:00,984.7482045
1901/1/25 17:00,977.5861701
1901/1/25 18:00,982.3584328
1901/1/25 19:00,977.0531795
1901/1/25 20:00,981.3067548
1901/1/25 21:00,957.1267212
1901/1/25 22:00,984.5538301
1901/1/25 23:00,1038.87263
1901/1/26 0:00,1123.37553
1901/1/26 1:00,1018.687987
1901/1/26 2:00,939.7550892
1901/1/26 3:00,976.8767766
1901/1/26 4:00,964.5022453
1901/1/26 5:00,976.29235
1901/1/26 6:00,968.0843727
1901/1/26 7:00,975.3797477
1901/1/26 8:00,970.2538081
1901/1/26 9:00,977.0871347
1901/1/26 10:00,970.9826045
1901/1/26 11:00,977.1206678
1901/1/26 12:00,972.8891017
1901/1/26 13:00,977.4763492
1901/1/26 14:00,974.0572689
1901/1/26 15:00,976.9502609
1901/1/26 16:00,971.7342241
1901/1/26 17:00,974.9232271
1901/1/26 18:00,968.9434592
1901/1/26 19:00,972.0166522
1901/1/26 20:00,969.8098495
1901/1/26 21:00,972.6255019
1901/1/26 22:00,966.3459205
1901/1/26 23:00,961.9927162
1901/1/27 0:00,955.3295927
1901/1/27 1:00,950.8868848
1901/1/27 2:00,945.3913806
1901/1/27 3:00,945.1801394
1901/1/27 4:00,944.9147695
1901/1/27 5:00,955.8442046
1901/1/27 6:00,963.6251539
1901/1/27 7:00,976.8848089
1901/1/27 8:00,979.9844595
1901/1/27 9:00,986.6550783
1901/1/27 10:00,986.0913095
1901/1/27 11:00,988.9226168
1901/1/27 12:00,986.5977661
1901/1/27 13:00,988.3988762
1901/1/27 14:00,986.8132157
1901/1/27 15:00,986.9776617
1901/1/27 16:00,985.4363234
1901/1/27 17:00,985.9581578
1901/1/27 18:00,984.3665717
1901/1/27 19:00,982.2712557
1901/1/27 20:00,982.302004
1901/1/27 21:00,982.3189697
1901/1/27 22:00,984.3541569
1901/1/27 23:00,982.8490683
1901/1/28 0:00,981.4675273
1901/1/28 1:00,981.2387236
1901/1/28 2:00,982.0740684
1901/1/28 3:00,982.0543617
1901/1/28 4:00,983.0721722
1901/1/28 5:00,983.0015205
1901/1/28 6:00,983.6652536
1901/1/28 7:00,985.1169073
1901/1/28 8:00,984.9812188
1901/1/28 9:00,984.3819758
1901/1/28 10:00,986.521263
1901/1/28 11:00,988.9925767
1901/1/28 12:00,991.0919874
1901/1/28 13:00,993.5283017
1901/1/28 14:00,997.0633256
1901/1/28 15:00,996.4597782
1901/1/28 16:00,992.509752
1901/1/28 17:00,990.3516537
1901/1/28 18:00,987.7217003
1901/1/28 19:00,987.2029209
1901/1/28 20:00,984.0619624
1901/1/28 21:00,984.0165714
1901/1/28 22:00,985.1261916
1901/1/28 23:00,983.4245328
1901/1/29 0:00,982.1889902
1901/1/29 1:00,960.473198
1901/1/29 2:00,987.1348737
1901/1/29 3:00,1077.046131
1901/1/29 4:00,1128.54756
1901/1/29 5:00,989.1395238
1901/1/29 6:00,968.3123388
1901/1/29 7:00,982.2009226
1901/1/29 8:00,972.1825799
1901/1/29 9:00,978.322757
1901/1/29 10:00,974.4434663
1901/1/29 11:00,980.1080033
1901/1/29 12:00,977.5365567
1901/1/29 13:00,980.2612054
1901/1/29 14:00,978.7758454
1901/1/29 15:00,979.4910631
1901/1/29 16:00,978.5752579
1901/1/29 17:00,980.0288544
1901/1/29 18:00,977.5847697
1901/1/29 19:00,978.3064729
1901/1/29 20:00,977.8476517
1901/1/29 21:00,978.0568331
1901/1/29 22:00,974.3157113
1901/1/29 23:00,974.3023905
1901/1/30 0:00,968.2889643
1901/1/30 1:00,964.1197522
1901/1/30 2:00,958.6827002
1901/1/30 3:00,955.1363471
1901/1/30 4:00,952.1981988
1901/1/30 5:00,952.8890471
1901/1/30 6:00,957.4654026
1901/1/30 7:00,969.6590189
1901/1/30 8:00,978.8252423
1901/1/30 9:00,988.4287215
1901/1/30 10:00,986.4227864
1901/1/30 11:00,990.9674915
1901/1/30 12:00,990.4244934
1901/1/30 13:00,993.262145
1901/1/30 14:00,991.5567608
1901/1/30 15:00,993.4953811
1901/1/30 16:00,989.841929
1901/1/30 17:00,991.559529
1901/1/30 18:00,988.2316758
1901/1/30 19:00,989.2523629
1901/1/30 20:00,986.2478797
1901/1/30 21:00,987.2357946
1901/1/30 22:00,984.6551459
1901/1/30 23:00,984.7940093
1901/1/31 0:00,984.0492555
1901/1/31 1:00,985.266437
1901/1/31 2:00,984.5059557
1901/1/31 3:00,986.679462
1901/1/31 4:00,985.4443576
1901/1/31 5:00,987.4583745
1901/1/31 6:00,985.902971
1901/1/31 7:00,987.3975166
1901/1/31 8:00,987.0629363
1901/1/31 9:00,989.3398945
1901/1/31 10:00,987.7866396
1901/1/31 11:00,988.3544565
1901/1/31 12:00,986.6678189
1901/1/31 13:00,992.1047155
1901/1/31 14:00,993.1432362
1901/1/31 15:00,997.213371
1901/1/31 16:00,999.6823276
1901/1/31 17:00,998.3692173
1901/1/31 18:00,993.903684
1901/1/31 19:00,993.3469388
1901/1/31 20:00,988.6370809
1901/1/31 21:00,989.6534859
1901/1/31 22:00,985.725579
1901/1/31 23:00,989.1861162
1901/2/1 0:00,986.8693022
1901/2/1 1:00,986.3868633
1901/2/1 2:00,963.5898991
1901/2/1 3:00,982.5159757
1901/2/1 4:00,1091.164966
1901/2/1 5:00,1141.790804
1901/2/1 6:00,991.2536673
1901/2/1 7:00,978.0054691
1901/2/1 8:00,978.4104928
1901/2/1 9:00,979.5703174
1901/2/1 10:00,976.9950331
1901/2/1 11:00,977.9402096
1901/2/1 12:00,977.0266246
1901/2/1 13:00,978.2003662
1901/2/1 14:00,978.2118468
1901/2/1 15:00,980.0764917
1901/2/1 16:00,978.9133445
1901/2/1 17:00,980.8675448
1901/2/1 18:00,978.7981203
1901/2/1 19:00,977.7664276
1901/2/1 20:00,976.9789245
1901/2/1 21:00,977.478816
1901/2/1 22:00,974.5072213
1901/2/1 23:00,971.8937841
1901/2/2 0:00,966.4215805
1901/2/2 1:00,962.599471
1901/2/2 2:00,957.0362504
1901/2/2 3:00,954.6168581
1901/2/2 4:00,951.6645794
1901/2/2 5:00,954.8291144
1901/2/2 6:00,960.3364446
1901/2/2 7:00,971.1374546
1901/2/2 8:00,975.9382733
1901/2/2 9:00,984.0997523
1901/2/2 10:00,989.5049672
1901/2/2 11:00,993.6604357
1901/2/2 12:00,993.1499137
1901/2/2 13:00,993.9140937
1901/2/2 14:00,992.3192266
1901/2/2 15:00,993.6193598
1901/2/2 16:00,991.311222
1901/2/2 17:00,992.1614425
1901/2/2 18:00,990.0497268
1901/2/2 19:00,990.4908651
1901/2/2 20:00,987.9927145
1901/2/2 21:00,988.1806427
1901/2/2 22:00,988.2181672
1901/2/2 23:00,987.4789081
1901/2/3 0:00,988.5408259
1901/2/3 1:00,986.4129996
1901/2/3 2:00,987.6126111
1901/2/3 3:00,988.0330788
1901/2/3 4:00,989.6671614
1901/2/3 5:00,988.8618762
1901/2/3 6:00,990.7688614
1901/2/3 7:00,990.6195842
1901/2/3 8:00,991.7972425
1901/2/3 9:00,991.6815383
1901/2/3 10:00,992.2601764
1901/2/3 11:00,990.4513089
1901/2/3 12:00,995.1567828
1901/2/3 13:00,997.3055242
1901/2/3 14:00,1000.611821
1901/2/3 15:00,1004.279873
1901/2/3 16:00,1002.845995
1901/2/3 17:00,997.0851763
1901/2/3 18:00,997.2945319
1901/2/3 19:00,992.6845122
1901/2/3 20:00,995.4806827
1901/2/3 21:00,991.0705423
1901/2/3 22:00,993.7485596
1901/2/3 23:00,988.8661918
1901/2/4 0:00,994.0658873
1901/2/4 1:00,971.5701065
1901/2/4 2:00,975.393512
1901/2/4 3:00,1045.697366
1901/2/4 4:00,1130.057395
1901/2/4 5:00,1018.521809
1901/2/4 6:00,973.22931
1901/2/4 7:00,993.4652316
1901/2/4 8:00,980.728432
1901/2/4 9:00,990.0447872
1901/2/4 10:00,981.3661507
1901/2/4 11:00,987.083674
1901/2/4 12:00,982.6999263
1901/2/4 13:00,986.0458966
1901/2/4 14:00,984.1816312
1901/2/4 15:00,987.4037137
1901/2/4 16:00,984.2468267
1901/2/4 17:00,986.4731264
1901/2/4 18:00,983.1514468
1901/2/4 19:00,984.0040195
1901/2/4 20:00,982.3938189
1901/2/4 21:00,981.5044104
1901/2/4 22:00,975.1061043
1901/2/4 23:00,976.7878248
1901/2/5 0:00,969.634998
1901/2/5 1:00,967.6008259
1901/2/5 2:00,962.6189828
1901/2/5 3:00,962.0315146
1901/2/5 4:00,958.7504986
1901/2/5 5:00,965.9861644
1901/2/5 6:00,973.1955932
1901/2/5 7:00,983.0425617
1901/2/5 8:00,986.7465878
1901/2/5 9:00,990.3731186
1901/2/5 10:00,989.079554
1901/2/5 11:00,992.1727086
1901/2/5 12:00,988.7625749
1901/2/5 13:00,989.0661685
1901/2/5 14:00,987.5812832
1901/2/5 15:00,988.2776313
1901/2/5 16:00,984.1956831
1901/2/5 17:00,988.071092
1901/2/5 18:00,982.7003428
1901/2/5 19:00,983.4698789
1901/2/5 20:00,979.5996704
1901/2/5 21:00,983.616419
1901/2/5 22:00,980.1122841
1901/2/5 23:00,982.8084525
1901/2/6 0:00,979.9156622
1901/2/6 1:00,981.7784663
1901/2/6 2:00,976.7630034
1901/2/6 3:00,982.6013905
1901/2/6 4:00,980.4521247
1901/2/6 5:00,981.2908836
1901/2/6 6:00,979.850244
1901/2/6 7:00,979.0731526
1901/2/6 8:00,977.8871238
1901/2/6 9:00,983.508638
1901/2/6 10:00,985.4066253
1901/2/6 11:00,988.2696023
1901/2/6 12:00,988.0077207
1901/2/6 13:00,987.2006917
1901/2/6 14:00,983.6108716
1901/2/6 15:00,982.3900356
1901/2/6 16:00,975.0576212
1901/2/6 17:00,981.074702
1901/2/6 18:00,976.8380674
1901/2/6 19:00,978.6815968
1901/2/6 20:00,971.9062592
1901/2/6 21:00,978.7496364
1901/2/6 22:00,963.679638
1901/2/6 23:00,961.3471252
1901/2/7 0:00,998.3151358
1901/2/7 1:00,1086.515497
1901/2/7 2:00,1022.23611
1901/2/7 3:00,942.3002644
1901/2/7 4:00,974.2211031
1901/2/7 5:00,963.3791119
1901/2/7 6:00,969.1319904
1901/2/7 7:00,965.1053708
1901/2/7 8:00,971.4755568
1901/2/7 9:00,967.0898506
1901/2/7 10:00,969.1283071
1901/2/7 11:00,965.1817832
1901/2/7 12:00,968.9054367
1901/2/7 13:00,965.2070114
1901/2/7 14:00,968.9750109
1901/2/7 15:00,966.2522748
1901/2/7 16:00,967.9363348
1901/2/7 17:00,965.8797605
1901/2/7 18:00,966.467489
1901/2/7 19:00,962.1054487
1901/2/7 20:00,963.5494855
1901/2/7 21:00,959.9553618
1901/2/7 22:00,956.4173743
1901/2/7 23:00,951.1409227
1901/2/8 0:00,945.8602192
1901/2/8 1:00,939.9714873
1901/2/8 2:00,940.4534181
1901/2/8 3:00,943.2278412
1901/2/8 4:00,951.7074262
1901/2/8 5:00,961.2018596
1901/2/8 6:00,972.4877463
1901/2/8 7:00,977.5886792
1901/2/8 8:00,979.8502208
1901/2/8 9:00,981.0083209
1901/2/8 10:00,980.8370133
1901/2/8 11:00,984.0420468
1901/2/8 12:00,982.5766159
1901/2/8 13:00,982.6766522
1901/2/8 14:00,982.4624418
1901/2/8 15:00,983.22809
1901/2/8 16:00,981.3216309
1901/2/8 17:00,980.9495729
1901/2/8 18:00,979.3822378
1901/2/8 19:00,981.5210834
1901/2/8 20:00,979.170721
1901/2/8 21:00,978.6364966
1901/2/8 22:00,979.3095112
1901/2/8 23:00,979.4977046
1901/2/9 0:00,979.6895559
1901/2/9 1:00,980.0695146
1901/2/9 2:00,979.4076945
1901/2/9 3:00,978.8957396
1901/2/9 4:00,979.6121018
1901/2/9 5:00,980.8723604
1901/2/9 6:00,980.4420987
1901/2/9 7:00,979.1229953
1901/2/9 8:00,980.4503211
1901/2/9 9:00,979.2973628
1901/2/9 10:00,981.2792653
1901/2/9 11:00,984.7876157
1901/2/9 12:00,987.0607429
1901/2/9 13:00,989.8257579
1901/2/9 14:00,987.6884738
1901/2/9 15:00,992.608479
1901/2/9 16:00,989.1279884
1901/2/9 17:00,987.2851582
1901/2/9 18:00,983.8572189
1901/2/9 19:00,984.4438193
1901/2/9 20:00,980.30921
1901/2/9 21:00,981.7808612
1901/2/9 22:00,979.4424981
1901/2/9 23:00,982.547341
1901/2/10 0:00,979.9863694
1901/2/10 1:00,980.9180278
1901/2/10 2:00,957.3732068
1901/2/10 3:00,972.1658467
1901/2/10 4:00,1059.936079
1901/2/10 5:00,1150.704261
1901/2/10 6:00,1023.733247
1901/2/10 7:00,961.8700306
1901/2/10 8:00,981.7352559
1901/2/10 9:00,969.3973201
1901/2/10 10:00,977.1242
1901/2/10 11:00,971.1697199
1901/2/10 12:00,975.9950877
1901/2/10 13:00,970.6352632
1901/2/10 14:00,974.898532
1901/2/10 15:00,974.8359871
1901/2/10 16:00,975.3973181
1901/2/10 17:00,973.9373066
1901/2/10 18:00,975.9508467
1901/2/10 19:00,973.0893073
1901/2/10 20:00,975.0959659
1901/2/10 21:00,971.4001871
1901/2/10 22:00,970.600018
1901/2/10 23:00,967.3518288
1901/2/11 0:00,967.4107372
1901/2/11 1:00,961.2252876
1901/2/11 2:00,957.6774181
1901/2/11 3:00,951.7621857
1901/2/11 4:00,949.7493204
1901/2/11 5:00,946.2262047
1901/2/11 6:00,947.477597
1901/2/11 7:00,951.6585043
1901/2/11 8:00,964.4819423
1901/2/11 9:00,973.8964479
1901/2/11 10:00,983.2651903
1901/2/11 11:00,984.8893439
1901/2/11 12:00,991.9801696
1901/2/11 13:00,988.2076344
1901/2/11 14:00,991.8345642
1901/2/11 15:00,987.7535259
1901/2/11 16:00,990.1430129
1901/2/11 17:00,989.6009614
1901/2/11 18:00,990.7520232
1901/2/11 19:00,986.329221
1901/2/11 20:00,987.7060371
1901/2/11 21:00,984.9417812
1901/2/11 22:00,983.5485132
1901/2/11 23:00,983.3310243
1901/2/12 0:00,982.7867103
1901/2/12 1:00,982.150156
1901/2/12 2:00,982.0850831
1901/2/12 3:00,980.0437421
1901/2/12 4:00,980.6472843
1901/2/12 5:00,979.3608695
1901/2/12 6:00,980.6071308
1901/2/12 7:00,979.3133778
1901/2/12 8:00,981.1467816
1901/2/12 9:00,978.1561695
1901/2/12 10:00,982.9523309
1901/2/12 11:00,979.3507656
1901/2/12 12:00,981.6868866
1901/2/12 13:00,979.4629823
1901/2/12 14:00,981.5910038
1901/2/12 15:00,980.0834484
1901/2/12 16:00,984.6491886
1901/2/12 17:00,985.0513291
1901/2/12 18:00,990.1498017
1901/2/12 19:00,990.5331619
1901/2/12 20:00,992.4009846
1901/2/12 21:00,988.5355533
1901/2/12 22:00,985.5266037
1901/2/12 23:00,981.2287021
1901/2/13 0:00,981.274284
1901/2/13 1:00,977.8547598
1901/2/13 2:00,979.4318412
1901/2/13 3:00,975.8510412
1901/2/13 4:00,980.5948283
1901/2/13 5:00,970.1015789
1901/2/13 6:00,961.9722124
1901/2/13 7:00,940.9523571
1901/2/13 8:00,980.0304912
1901/2/13 9:00,1064.598255
1901/2/13 10:00,1142.95081
1901/2/13 11:00,1012.952231
1901/2/13 12:00,959.8258667
1901/2/13 13:00,977.0541348
1901/2/13 14:00,966.2742337
1901/2/13 15:00,973.2816835
1901/2/13 16:00,967.3453598
1901/2/13 17:00,972.4373907
1901/2/13 18:00,967.8973292
1901/2/13 19:00,972.8115393
1901/2/13 20:00,970.1838633
1901/2/13 21:00,972.9698672
1901/2/13 22:00,970.8216849
1901/2/13 23:00,972.7804302
1901/2/14 0:00,970.2767917
1901/2/14 1:00,971.5685581
1901/2/14 2:00,967.4475615
1901/2/14 3:00,969.4657279
1901/2/14 4:00,965.0058953
1901/2/14 5:00,964.0317188
1901/2/14 6:00,959.5595302
1901/2/14 7:00,956.0152746
1901/2/14 8:00,952.012034
1901/2/14 9:00,947.2413322
1901/2/14 10:00,943.5040232
1901/2/14 11:00,944.4833704
1901/2/14 12:00,946.6966875
1901/2/14 13:00,956.5019227
1901/2/14 14:00,967.2254976
1901/2/14 15:00,977.4369791
1901/2/14 16:00,981.8226863
1901/2/14 17:00,984.3615073
1901/2/14 18:00,985.3918684
1901/2/14 19:00,986.2475212
1901/2/14 20:00,985.7791414
1901/2/14 21:00,984.4111208
1901/2/14 22:00,983.3337348
1901/2/14 23:00,981.3808676
1901/2/15 0:00,981.5540296
1901/2/15 1:00,978.7014144
1901/2/15 2:00,980.6822041
1901/2/15 3:00,978.1473634
1901/2/15 4:00,978.2434674
1901/2/15 5:00,975.3359782
1901/2/15 6:00,974.4451756
1901/2/15 7:00,975.6909897
1901/2/15 8:00,974.8170385
1901/2/15 9:00,973.1348058
1901/2/15 10:00,974.0784252
1901/2/15 11:00,976.8821614
1901/2/15 12:00,973.8239625
1901/2/15 13:00,971.5115811
1901/2/15 14:00,975.4420954
1901/2/15 15:00,975.82135
1901/2/15 16:00,973.0244011
1901/2/15 17:00,972.4108359
1901/2/15 18:00,974.6818481
1901/2/15 19:00,978.2449492
1901/2/15 20:00,978.7716261
1901/2/15 21:00,982.6278865
1901/2/15 22:00,981.8926755
1901/2/15 23:00,981.7655004
1901/2/16 0:00,975.75946
1901/2/16 1:00,974.7764083
1901/2/16 2:00,973.403615
1901/2/16 3:00,970.0705757
1901/2/16 4:00,968.7995049
1901/2/16 5:00,969.4991403
1901/2/16 6:00,968.6613944
1901/2/16 7:00,966.9141188
1901/2/16 8:00,964.9512141
1901/2/16 9:00,946.9272692
1901/2/16 10:00,969.2650286
1901/2/16 11:00,1042.022939
1901/2/16 12:00,1085.127686
1901/2/16 13:00,964.4708677
1901/2/16 14:00,950.6091871
1901/2/16 15:00,961.8516712
1901/2/16 16:00,958.0972094
1901/2/16 17:00,961.4085211
1901/2/16 18:00,958.8482716
1901/2/16 19:00,958.3992806
1901/2/16 20:00,960.541345
1901/2/16 21:00,960.5295215
1901/2/16 22:00,961.1385163
1901/2/16 23:00,962.611395
1901/2/17 0:00,959.043378
1901/2/17 1:00,960.6554938
1901/2/17 2:00,958.5573851
1901/2/17 3:00,960.1420549
1901/2/17 4:00,959.4296658
1901/2/17 5:00,959.7540136
1901/2/17 6:00,957.7699693
1901/2/17 7:00,956.7689745
1901/2/17 8:00,953.2528638
1901/2/17 9:00,949.8214253
1901/2/17 10:00,942.6766458
1901/2/17 11:00,938.6600096
1901/2/17 12:00,936.050963
1901/2/17 13:00,935.1729032
1901/2/17 14:00,933.4251368
1901/2/17 15:00,942.7412273
1901/2/17 16:00,950.3299074
1901/2/17 17:00,957.6775656
1901/2/17 18:00,966.5298234
1901/2/17 19:00,963.7120181
1901/2/17 20:00,968.8618453
1901/2/17 21:00,965.7125205
1901/2/17 22:00,967.0278145
1901/2/17 23:00,966.899353
1901/2/18 0:00,966.4771596
1901/2/18 1:00,963.8644609
1901/2/18 2:00,964.5746705
1901/2/18 3:00,963.3982396
1901/2/18 4:00,963.4706906
1901/2/18 5:00,958.5088661
1901/2/18 6:00,959.7075654
1901/2/18 7:00,957.7783128
1901/2/18 8:00,958.733089
1901/2/18 9:00,956.580672
1901/2/18 10:00,957.9528059
1901/2/18 11:00,955.4435627
1901/2/18 12:00,957.8474867
1901/2/18 13:00,956.5765964
1901/2/18 14:00,957.6412599
1901/2/18 15:00,955.2231679
1901/2/18 16:00,957.4393378
1901/2/18 17:00,956.0436549
1901/2/18 18:00,956.8275124
1901/2/18 19:00,957.391819
1901/2/18 20:00,956.5925289
1901/2/18 21:00,959.6388492
1901/2/18 22:00,962.6038395
1901/2/18 23:00,963.230009
1901/2/19 0:00,966.2744128
1901/2/19 1:00,966.3699606
1901/2/19 2:00,963.8795216
1901/2/19 3:00,962.0230272
1901/2/19 4:00,958.1664144
1901/2/19 5:00,955.6904718
1901/2/19 6:00,957.2207183
1901/2/19 7:00,957.6847972
1901/2/19 8:00,960.3127701
1901/2/19 9:00,956.7300156
1901/2/19 10:00,961.1268293
1901/2/19 11:00,947.0485303
1901/2/19 12:00,940.8693403
1901/2/19 13:00,981.9400189
1901/2/19 14:00,1074.189115
1901/2/19 15:00,1065.02661
1901/2/19 16:00,935.0128928
1901/2/19 17:00,956.9193396
1901/2/19 18:00,954.3239041
1901/2/19 19:00,960.5658552
1901/2/19 20:00,955.0641348
1901/2/19 21:00,959.6595919
1901/2/19 22:00,956.8212817
1901/2/19 23:00,960.733573
1901/2/20 0:00,957.4132299
1901/2/20 1:00,960.6504639
1901/2/20 2:00,958.8837242
1901/2/20 3:00,960.43613
1901/2/20 4:00,959.5019814
1901/2/20 5:00,960.60241
1901/2/20 6:00,955.9112694
1901/2/20 7:00,959.1656641
1901/2/20 8:00,955.2499451
1901/2/20 9:00,955.1102948
1901/2/20 10:00,951.3898566
1901/2/20 11:00,950.9011384
1901/2/20 12:00,945.2652582
1901/2/20 13:00,941.8073915
1901/2/20 14:00,936.2332214
1901/2/20 15:00,933.7537595
1901/2/20 16:00,931.426073
1901/2/20 17:00,938.4342083
1901/2/20 18:00,949.0299282
1901/2/20 19:00,958.0757465
1901/2/20 20:00,965.9211825
1901/2/20 21:00,971.3386733
1901/2/20 22:00,974.3635492
1901/2/20 23:00,975.8137178
1901/2/21 0:00,975.6951889
1901/2/21 1:00,975.6852461
1901/2/21 2:00,974.8709509
1901/2/21 3:00,973.0614628
1901/2/21 4:00,972.2709468
1901/2/21 5:00,973.0591595
1901/2/21 6:00,972.3667817
1901/2/21 7:00,970.8738268
1901/2/21 8:00,971.5612011
1901/2/21 9:00,969.7503485
1901/2/21 10:00,970.8284591
1901/2/21 11:00,969.6694411
1901/2/21 12:00,970.5125618
1901/2/21 13:00,969.0489397
1901/2/21 14:00,970.8690417
1901/2/21 15:00,969.6755728
1901/2/21 16:00,970.2462925
1901/2/21 17:00,970.5515584
1901/2/21 18:00,971.2784959
1901/2/21 19:00,970.6706003
1901/2/21 20:00,972.5534748
1901/2/21 21:00,970.8178597
1901/2/21 22:00,973.6967149
1901/2/21 23:00,972.8663001
1901/2/22 0:00,978.1806804
1901/2/22 1:00,979.1773983
1901/2/22 2:00,984.1240286
1901/2/22 3:00,983.6427167
1901/2/22 4:00,984.3387927
1901/2/22 5:00,978.0724472
1901/2/22 6:00,979.3582725
1901/2/22 7:00,973.9198724
1901/2/22 8:00,976.0192534
1901/2/22 9:00,973.6774287
1901/2/22 10:00,976.1316269
1901/2/22 11:00,972.189109
1901/2/22 12:00,975.4102914
1901/2/22 13:00,963.6804282
1901/2/22 14:00,952.7443595
1901/2/22 15:00,1001.60481
1901/2/22 16:00,1126.836473
1901/2/22 17:00,1098.238649
1901/2/22 18:00,961.7899176
1901/2/22 19:00,974.7901738
1901/2/22 20:00,962.3419214
1901/2/22 21:00,968.2800092
1901/2/22 22:00,961.4605715
1901/2/22 23:00,967.1565348
1901/2/23 0:00,963.4054505
1901/2/23 1:00,968.2060193
1901/2/23 2:00,963.5318126
1901/2/23 3:00,967.4969535
1901/2/23 4:00,965.2818209
1901/2/23 5:00,967.7558111
1901/2/23 6:00,964.9235748
1901/2/23 7:00,967.0936102
1901/2/23 8:00,962.919735
1901/2/23 9:00,964.3279643
1901/2/23 10:00,958.422089
1901/2/23 11:00,958.8877899
1901/2/23 12:00,952.2450453
1901/2/23 13:00,949.8222942
1901/2/23 14:00,944.7457249
1901/2/23 15:00,942.5502723
1901/2/23 16:00,939.0679235
1901/2/23 17:00,943.0303451
1901/2/23 18:00,948.3415272
1901/2/23 19:00,961.8408145
1901/2/23 20:00,970.4230937
1901/2/23 21:00,979.6097043
1901/2/23 22:00,978.9363972
1901/2/23 23:00,982.3902699
1901/2/24 0:00,982.132775
1901/2/24 1:00,982.6515408
1901/2/24 2:00,981.0975497
1901/2/24 3:00,981.4441325
1901/2/24 4:00,979.8818715
1901/2/24 5:00,979.4762493
1901/2/24 6:00,978.5104277
1901/2/24 7:00,979.0640542
1901/2/24 8:00,978.149982
1901/2/24 9:00,975.9282696
1901/2/24 10:00,975.462705
1901/2/24 11:00,976.3305839
1901/2/24 12:00,975.0959269
1901/2/24 13:00,974.8264583
1901/2/24 14:00,973.8343582
1901/2/24 15:00,974.4977851
1901/2/24 16:00,974.5933135
1901/2/24 17:00,977.1105936
1901/2/24 18:00,975.468279
1901/2/24 19:00,977.8021143
1901/2/24 20:00,977.0466547
1901/2/24 21:00,977.5522812
1901/2/24 22:00,977.6790905
1901/2/24 23:00,980.0113971
1901/2/25 0:00,981.1302182
1901/2/25 1:00,984.9110698
1901/2/25 2:00,985.7929002
1901/2/25 3:00,988.7207104
1901/2/25 4:00,990.2302565
1901/2/25 5:00,985.5658433
1901/2/25 6:00,984.1826506
1901/2/25 7:00,980.0295382
1901/2/25 8:00,979.9306775
1901/2/25 9:00,976.7299154
1901/2/25 10:00,979.8944893
1901/2/25 11:00,977.7213337
1901/2/25 12:00,979.0262124
1901/2/25 13:00,955.1216316
1901/2/25 14:00,966.4591758
1901/2/25 15:00,1049.090776
1901/2/25 16:00,1132.70239
1901/2/25 17:00,1006.498863
1901/2/25 18:00,960.5039653
1901/2/25 19:00,977.9201451
1901/2/25 20:00,968.1495496
1901/2/25 21:00,974.0008297
1901/2/25 22:00,968.2305867
1901/2/25 23:00,972.053887
1901/2/26 0:00,969.3662742
1901/2/26 1:00,972.300773
1901/2/26 2:00,970.08081
1901/2/26 3:00,974.1770729
1901/2/26 4:00,972.8955002
1901/2/26 5:00,975.3610697
1901/2/26 6:00,970.8581305
1901/2/26 7:00,971.7928336
1901/2/26 8:00,967.2226761
1901/2/26 9:00,967.2811589
1901/2/26 10:00,962.6741135
1901/2/26 11:00,961.5624812
1901/2/26 12:00,958.0233894
1901/2/26 13:00,954.1860245
1901/2/26 14:00,949.0887317
1901/2/26 15:00,948.127169
1901/2/26 16:00,945.9093267
1901/2/26 17:00,945.4002241
1901/2/26 18:00,946.6014795
1901/2/26 19:00,955.2260303
1901/2/26 20:00,961.3696945
1901/2/26 21:00,969.582762
1901/2/26 22:00,973.7593411
1901/2/26 23:00,978.6823761
1901/2/27 0:00,974.4981118
1901/2/27 1:00,976.4587679
1901/2/27 2:00,974.1569937
1901/2/27 3:00,973.7045059
1901/2/27 4:00,972.1298216
1901/2/27 5:00,973.3441292
1901/2/27 6:00,970.153172
1901/2/27 7:00,974.1578038
1901/2/27 8:00,969.3822113
1901/2/27 9:00,970.3341332
1901/2/27 10:00,967.0623812
1901/2/27 11:00,968.0474545
1901/2/27 12:00,966.7002216
1901/2/27 13:00,967.4240672
1901/2/27 14:00,966.098973
1901/2/27 15:00,966.6245611
1901/2/27 16:00,965.7983618
1901/2/27 17:00,968.2044764
1901/2/27 18:00,965.4957345
1901/2/27 19:00,966.4239676
1901/2/27 20:00,966.2859355
1901/2/27 21:00,967.1433217
1901/2/27 22:00,965.6760879
1901/2/27 23:00,967.8588896
1901/2/28 0:00,971.3170253
1901/2/28 1:00,970.6632992
1901/2/28 2:00,974.6983438
1901/2/28 3:00,976.4811415
1901/2/28 4:00,971.5094184
1901/2/28 5:00,969.0058701
1901/2/28 6:00,966.6564386
1901/2/28 7:00,965.0241899
1901/2/28 8:00,963.8785002
1901/2/28 9:00,964.5316516
1901/2/28 10:00,963.5312406
1901/2/28 11:00,964.1089632
1901/2/28 12:00,947.773712
1901/2/28 13:00,945.455013
1901/2/28 14:00,1002.265325
1901/2/28 15:00,1054.65433
1901/2/28 16:00,1125.049988
1901/2/28 17:00,988.5992674
1901/2/28 18:00,932.1006511
1901/2/28 19:00,959.894143
1901/2/28 20:00,949.7153766
1901/2/28 21:00,956.356423
1901/2/28 22:00,950.7934509
1901/2/28 23:00,954.7370549
1901/3/1 0:00,951.2954449
1901/3/1 1:00,954.8185845
1901/3/1 2:00,952.9234619
1901/3/1 3:00,955.1881573
1901/3/1 4:00,950.9986094
1901/3/1 5:00,953.7082161
1901/3/1 6:00,949.5127394
1901/3/1 7:00,954.7763204
1901/3/1 8:00,947.15798
1901/3/1 9:00,949.5846349
1901/3/1 10:00,942.654765
1901/3/1 11:00,946.9739587
1901/3/1 12:00,941.7268828
1901/3/1 13:00,936.5446021
1901/3/1 14:00,928.7870479
1901/3/1 15:00,927.3237489
1901/3/1 16:00,920.7169965
1901/3/1 17:00,924.4387373
1901/3/1 18:00,929.5401001
1901/3/1 19:00,941.0291555
1901/3/1 20:00,946.4391509
1901/3/1 21:00,955.6853363
1901/3/1 22:00,957.2811163
1901/3/1 23:00,960.7131566
1901/3/2 0:00,958.7973326
1901/3/2 1:00,959.4193254
1901/3/2 2:00,956.8193045
1901/3/2 3:00,960.0702823
1901/3/2 4:00,956.370338
1901/3/2 5:00,956.6366993
1901/3/2 6:00,954.1845543
1901/3/2 7:00,955.3446902
1901/3/2 8:00,954.05446
1901/3/2 9:00,954.0980391
1901/3/2 10:00,953.7810185
1901/3/2 11:00,954.7621271
1901/3/2 12:00,951.5269723
1901/3/2 13:00,952.7761306
1901/3/2 14:00,950.863797
1901/3/2 15:00,954.7854869
1901/3/2 16:00,952.1529349
1901/3/2 17:00,957.2347488
1901/3/2 18:00,953.3462544
1901/3/2 19:00,957.622015
1901/3/2 20:00,954.5567359
1901/3/2 21:00,957.9964011
1901/3/2 22:00,956.3809032
1901/3/2 23:00,964.2589549
1901/3/3 0:00,965.1592094
1901/3/3 1:00,969.0768641
1901/3/3 2:00,968.7316834
1901/3/3 3:00,968.0698001
1901/3/3 4:00,962.7585694
1901/3/3 5:00,963.6074708
1901/3/3 6:00,959.5813049
1901/3/3 7:00,962.8565224
1901/3/3 8:00,958.294719
1901/3/3 9:00,963.2300942
1901/3/3 10:00,957.7548977
1901/3/3 11:00,964.223097
1901/3/3 12:00,941.3249519
1901/3/3 13:00,951.5052681
1901/3/3 14:00,1028.771881
1901/3/3 15:00,1113.901346
1901/3/3 16:00,981.3929902
1901/3/3 17:00,940.5689669
1901/3/3 18:00,960.2391713
1901/3/3 19:00,949.3293473
1901/3/3 20:00,955.8219601
1901/3/3 21:00,952.9924235
1901/3/3 22:00,956.9377331
1901/3/3 23:00,955.4615311
1901/3/4 0:00,957.9315352
1901/3/4 1:00,956.8103564
1901/3/4 2:00,957.4215401
1901/3/4 3:00,957.2423059
1901/3/4 4:00,957.5401929
1901/3/4 5:00,956.4844395
1901/3/4 6:00,956.3325101
1901/3/4 7:00,954.1044718
1901/3/4 8:00,952.1169908
1901/3/4 9:00,949.2541871
1901/3/4 10:00,948.1758032
1901/3/4 11:00,945.689653
1901/3/4 12:00,938.1446704
1901/3/4 13:00,934.9611661
1901/3/4 14:00,928.0052806
1901/3/4 15:00,928.9247597
1901/3/4 16:00,929.9407368
1901/3/4 17:00,940.6468928
1901/3/4 18:00,950.281218
1901/3/4 19:00,961.3832222
1901/3/4 19:59,965.9327065
1901/3/4 20:59,971.392641
1901/3/4 21:59,968.8170262
1901/3/4 22:59,970.9279612
1901/3/4 23:59,968.2608158
1901/3/5 0:59,969.5949439
1901/3/5 1:59,968.2427091
1901/3/5 2:59,970.1007351
1901/3/5 3:59,967.6810175
1901/3/5 4:59,968.7672202
1901/3/5 5:59,965.7597082
1901/3/5 6:59,966.4070535
1901/3/5 7:59,963.8813762
1901/3/5 8:59,964.6438356
1901/3/5 9:59,963.9707168
1901/3/5 10:59,964.5823133
1901/3/5 11:59,967.1205144
1901/3/5 12:59,965.829014
1901/3/5 13:59,966.4423769
1901/3/5 14:59,967.7861171
1901/3/5 15:59,966.5837191
1901/3/5 16:59,968.4523135
1901/3/5 17:59,968.8565837
1901/3/5 18:59,970.111358
1901/3/5 19:59,969.7026854
1901/3/5 20:59,970.0905707
1901/3/5 21:59,968.8665093
1901/3/5 22:59,974.3271988
1901/3/5 23:59,976.2303457
1901/3/6 0:59,979.2902014
1901/3/6 1:59,981.8731301
1901/3/6 2:59,986.0961127
1901/3/6 3:59,981.8276801
1901/3/6 4:59,981.4355887
1901/3/6 5:59,976.2672746
1901/3/6 6:59,978.9325389
1901/3/6 7:59,972.5508065
1901/3/6 8:59,976.2590749
1901/3/6 9:59,972.0178207
1901/3/6 10:59,976.9673971
1901/3/6 11:59,969.9938043
1901/3/6 12:59,972.8345429
1901/3/6 13:59,943.1543615
1901/3/6 14:59,976.5479304
1901/3/6 15:59,1072.382942
1901/3/6 16:59,1160.269279
1901/3/6 17:59,1018.94028
1901/3/6 18:59,955.4039682
1901/3/6 19:59,973.2708408
1901/3/6 20:59,962.9363799
1901/3/6 21:59,966.9609716
1901/3/6 22:59,962.2526528
1901/3/6 23:59,965.6721791
1901/3/7 0:59,963.9545256
1901/3/7 1:59,966.0873262
1901/3/7 2:59,964.2053199
1901/3/7 3:59,966.7922156
1901/3/7 4:59,965.1456939
1901/3/7 5:59,965.0512724
1901/3/7 6:59,964.7749135
1901/3/7 7:59,965.3402987
1901/3/7 8:59,963.1504074
1901/3/7 9:59,961.8525469
1901/3/7 10:59,957.7786213
1901/3/7 11:59,959.1139764
1901/3/7 12:59,954.9460684
1901/3/7 13:59,951.4202587
1901/3/7 14:59,946.4531358
1901/3/7 15:59,943.0654277
1901/3/7 16:59,936.6387714
1901/3/7 17:59,932.4857683
1901/3/7 18:59,932.2056712
1901/3/7 19:59,935.2565605
1901/3/7 20:59,944.3377128
1901/3/7 21:59,954.0953781
1901/3/7 22:59,964.469287
1901/3/7 23:59,968.2282345
1901/3/8 0:59,973.8494777
1901/3/8 1:59,973.6992237
1901/3/8 2:59,974.4702621
1901/3/8 3:59,973.5058577
1901/3/8 4:59,974.1421194
1901/3/8 5:59,972.9446035
1901/3/8 6:59,972.1292906
1901/3/8 7:59,973.0830411
1901/3/8 8:59,972.0808943
1901/3/8 9:59,971.0338683
1901/3/8 10:59,971.1860138
1901/3/8 11:59,970.5088064
1901/3/8 12:59,970.0372918
1901/3/8 13:59,969.91356
1901/3/8 14:59,970.7695803
1901/3/8 15:59,966.5981223
1901/3/8 16:59,969.9166184
1901/3/8 17:59,968.3451089
1901/3/8 18:59,970.360615
1901/3/8 19:59,969.2479373
1901/3/8 20:59,971.9012819
1901/3/8 21:59,970.5101082
1901/3/8 22:59,972.1062705
1901/3/8 23:59,971.5358358
1901/3/9 0:59,972.8052865
1901/3/9 1:59,973.7973771
1901/3/9 2:59,974.4507119
1901/3/9 3:59,973.5220331
1901/3/9 4:59,976.4961271
1901/3/9 5:59,977.3997365
1901/3/9 6:59,983.6003134
1901/3/9 7:59,982.7132561
1901/3/9 8:59,989.1535874
1901/3/9 9:59,983.7477852
1901/3/9 10:59,983.4366972
1901/3/9 11:59,977.7621921
1901/3/9 12:59,980.4168475
1901/3/9 13:59,975.3386596
1901/3/9 14:59,978.9560547
1901/3/9 15:59,971.879167
1901/3/9 16:59,977.7599764
1901/3/9 17:59,973.4316537
1901/3/9 18:59,975.239849
1901/3/9 19:59,947.7756304
1901/3/9 20:59,971.6008871
1901/3/9 21:59,1048.676259
1901/3/9 22:59,1138.509964
1901/3/9 23:59,1029.800474
1901/3/10 0:59,953.8621071
1901/3/10 1:59,978.9886663
1901/3/10 2:59,964.8565346
1901/3/10 3:59,972.4469241
1901/3/10 4:59,966.2053776
1901/3/10 5:59,971.9161287
1901/3/10 6:59,967.5922398
1901/3/10 7:59,971.66216
1901/3/10 8:59,969.3042013
1901/3/10 9:59,972.4003048
1901/3/10 10:59,969.8716867
1901/3/10 11:59,972.0531036
1901/3/10 12:59,968.5699752
1901/3/10 13:59,970.129513
1901/3/10 14:59,967.5525062
1901/3/10 15:59,966.5522111
1901/3/10 16:59,963.4813973
1901/3/10 17:59,961.8023314
1901/3/10 18:59,958.23121
1901/3/10 19:59,954.038068
1901/3/10 20:59,948.2040461
1901/3/10 21:59,944.8395048
1901/3/10 22:59,940.3519467
1901/3/10 23:59,939.6083497
1901/3/11 0:59,941.9107168
1901/3/11 1:59,948.5139306
1901/3/11 2:59,957.7053627
1901/3/11 3:59,966.1222508
1901/3/11 4:59,968.7828225
1901/3/11 5:59,974.844012
1901/3/11 6:59,972.2124058
1901/3/11 7:59,973.9996672
1901/3/11 8:59,973.6740775
1901/3/11 9:59,971.581895
1901/3/11 10:59,971.8163186
1901/3/11 11:59,971.4692106
1901/3/11 12:59,970.6386217
1901/3/11 13:59,969.6708953
1901/3/11 14:59,968.6436312
1901/3/11 15:59,967.6573761
1901/3/11 16:59,966.1236151
1901/3/11 17:59,964.4249124
1901/3/11 18:59,964.8812803
1901/3/11 19:59,964.7694852
1901/3/11 20:59,966.7172272
1901/3/11 21:59,963.6580368
1901/3/11 22:59,968.6182581
1901/3/11 23:59,965.2843744
1901/3/12 0:59,965.3104272
1901/3/12 1:59,966.226833
1901/3/12 2:59,965.6431639
1901/3/12 3:59,965.8398879
1901/3/12 4:59,964.4199148
1901/3/12 5:59,963.0079781
1901/3/12 6:59,965.6258489
1901/3/12 7:59,969.349467
1901/3/12 8:59,973.3379934
1901/3/12 9:59,973.9055111
1901/3/12 10:59,975.3634731
1901/3/12 11:59,972.5598334
1901/3/12 12:59,971.6184974
1901/3/12 13:59,966.3302928
1901/3/12 14:59,966.898974
1901/3/12 15:59,964.0648864
1901/3/12 16:59,965.5533934
1901/3/12 17:59,959.2411316
1901/3/12 18:59,967.4150433
1901/3/12 19:59,961.6498741
1901/3/12 20:59,967.564593
1901/3/12 21:59,938.8166013
1901/3/12 22:59,950.8739422
1901/3/12 23:59,996.8525039
1901/3/13 0:59,1093.210282
1901/3/13 1:59,1016.767441
1901/3/13 2:59,930.8533518
1901/3/13 3:59,962.4456719
1901/3/13 4:59,951.7064911
1901/3/13 5:59,961.6592556
1901/3/13 6:59,952.9734244
1901/3/13 7:59,960.7406314
1901/3/13 8:59,958.3586324
1901/3/13 9:59,963.7381796
1901/3/13 10:59,956.9920672
1901/3/13 11:59,960.0986375
1901/3/13 12:59,955.8655449
1901/3/13 13:59,959.6024905
1901/3/13 14:59,958.513491
1901/3/13 15:59,958.2591057
1901/3/13 16:59,954.6336065
1901/3/13 17:59,956.4665873
1901/3/13 18:59,951.4063247
1901/3/13 19:59,952.1085146
1901/3/13 20:59,946.2258853
1901/3/13 21:59,942.166335
1901/3/13 22:59,934.2450432
1901/3/13 23:59,930.8777118
1901/3/14 0:59,926.5451906
1901/3/14 1:59,930.9172846
1901/3/14 2:59,936.7611785
1901/3/14 3:59,950.5537856
1901/3/14 4:59,956.6360241
1901/3/14 5:59,964.8414038
1901/3/14 6:59,964.9440227
1901/3/14 7:59,968.7825799
1901/3/14 8:59,967.9448935
1901/3/14 9:59,968.5372775
1901/3/14 10:59,967.2009503
1901/3/14 11:59,969.3710177
1901/3/14 12:59,966.7747718
1901/3/14 13:59,969.3591449
1901/3/14 14:59,965.387873
1901/3/14 15:59,965.0338405
1901/3/14 16:59,963.876151
1901/3/14 17:59,964.2810607
1901/3/14 18:59,963.4876456
1901/3/14 19:59,964.4481366
1901/3/14 20:59,964.4842308
1901/3/14 21:59,967.2786623
1901/3/14 22:59,968.0382737
1901/3/14 23:59,968.5232165
1901/3/15 0:59,968.1329072
1901/3/15 1:59,969.9518176
1901/3/15 2:59,969.2269732
1901/3/15 3:59,970.284335
1901/3/15 4:59,969.6416472
1901/3/15 5:59,974.5439603
1901/3/15 6:59,975.8820316
1901/3/15 7:59,981.477018
1901/3/15 8:59,981.729485
1901/3/15 9:59,986.3965307
1901/3/15 10:59,981.9019783
1901/3/15 11:59,981.1965161
1901/3/15 12:59,977.6355441
1901/3/15 13:59,979.0329039
1901/3/15 14:59,973.9933641
1901/3/15 15:59,976.9649906
1901/3/15 16:59,975.2118724
1901/3/15 17:59,976.6865126
1901/3/15 18:59,974.1807545
1901/3/15 19:59,976.1718679
1901/3/15 20:59,952.9053777
1901/3/15 21:59,974.5894191
1901/3/15 22:59,1068.501314
1901/3/15 23:59,1127.04917
1901/3/16 0:59,980.3779306
1901/3/16 1:59,962.3415504
1901/3/16 2:59,974.1339216
1901/3/16 3:59,969.5237838
1901/3/16 4:59,973.0099327
1901/3/16 5:59,971.1373097
1901/3/16 6:59,973.9904614
1901/3/16 7:59,971.8243743
1901/3/16 8:59,975.2422734
1901/3/16 9:59,973.1840993
1901/3/16 10:59,978.0715593
1901/3/16 11:59,973.9848848
1901/3/16 12:59,976.7488971
1901/3/16 13:59,974.4333892
1901/3/16 14:59,975.9432126
1901/3/16 15:59,973.3700292
1901/3/16 16:59,971.1788351
1901/3/16 17:59,967.9060879
1901/3/16 18:59,965.4133858
1901/3/16 19:59,959.4749674
1901/3/16 20:59,955.1216418
1901/3/16 21:59,948.3762668
1901/3/16 22:59,945.3228056
1901/3/16 23:59,943.0319496
1901/3/17 0:59,950.3899242
1901/3/17 1:59,961.0288602
1901/3/17 2:59,974.0092611
1901/3/17 3:59,980.7126034
1901/3/17 4:59,987.055554
1901/3/17 5:59,987.1078109
1901/3/17 6:59,988.9154365
1901/3/17 7:59,986.8086158
1901/3/17 8:59,990.2512943
1901/3/17 9:59,986.8077762
1901/3/17 10:59,986.5711961
1901/3/17 11:59,986.1015251
1901/3/17 12:59,985.0480284
1901/3/17 13:59,982.8398173
1901/3/17 14:59,983.569912
1901/3/17 15:59,981.6440097
1901/3/17 16:59,982.0818293
1901/3/17 17:59,979.5268784
1901/3/17 18:59,981.5611596
1901/3/17 19:59,978.813176
1901/3/17 20:59,982.7219837
1901/3/17 21:59,982.5517784
1901/3/17 22:59,983.5967532
1901/3/17 23:59,982.2163773
1901/3/18 0:59,985.169291
1901/3/18 1:59,982.1618666
1901/3/18 2:59,986.4177795
1901/3/18 3:59,981.4388457
1901/3/18 4:59,984.5120183
1901/3/18 5:59,984.2755116
1901/3/18 6:59,990.0556612
1901/3/18 7:59,990.3450922
1901/3/18 8:59,994.5046784
1901/3/18 9:59,995.0856913
1901/3/18 10:59,995.3238837
1901/3/18 11:59,988.8826926
1901/3/18 12:59,989.3568135
1901/3/18 13:59,982.9920565
1901/3/18 14:59,985.8425383
1901/3/18 15:59,980.8880798
1901/3/18 16:59,986.8669793
1901/3/18 17:59,979.9468973
1901/3/18 18:59,977.8446464
1901/3/18 19:59,947.2030145
1901/3/18 20:59,1017.652365
1901/3/18 21:59,1075.429953
1901/3/18 22:59,1150.6069
1901/3/18 23:59,1130.406582
1901/3/19 0:59,970.0030254
1901/3/19 1:59,983.5915847
1901/3/19 2:59,968.5993944
1901/3/19 3:59,976.0525255
1901/3/19 4:59,969.0191221
1901/3/19 5:59,974.5196529
1901/3/19 6:59,968.663263
1901/3/19 7:59,975.1791827
1901/3/19 8:59,969.1694782
1901/3/19 9:59,973.4733685
1901/3/19 10:59,970.6433436
1901/3/19 11:59,972.6357368
1901/3/19 12:59,969.2303201
1901/3/19 13:59,971.241466
1901/3/19 14:59,967.3003665
1901/3/19 15:59,965.8511383
1901/3/19 16:59,961.0077695
1901/3/19 17:59,959.2139308
1901/3/19 18:59,952.2888281
1901/3/19 19:59,948.9805627
1901/3/19 20:59,941.2470529
1901/3/19 21:59,939.908667
1901/3/19 22:59,938.2369618
1901/3/19 23:59,946.0351888
1901/3/20 0:59,954.6246528
1901/3/20 1:59,968.0888303
1901/3/20 2:59,971.2632692
1901/3/20 3:59,975.9953704
1901/3/20 4:59,980.8706024
1901/3/20 5:59,982.5972797
1901/3/20 6:59,982.246131
1901/3/20 7:59,981.4997967
1901/3/20 8:59,980.6791533
1901/3/20 9:59,980.4787594
1901/3/20 10:59,980.5474323
1901/3/20 11:59,980.1898047
1901/3/20 12:59,977.6255947
1901/3/20 13:59,976.831622
1901/3/20 14:59,975.2881418
1901/3/20 15:59,976.526957
1901/3/20 16:59,975.2033073
1901/3/20 17:59,976.7576699
1901/3/20 18:59,976.1003662
1901/3/20 19:59,977.8187712
1901/3/20 20:59,976.4106173
1901/3/20 21:59,979.5983692
1901/3/20 22:59,980.1675196
1901/3/20 23:59,981.0070548
1901/3/21 0:59,980.3900156
1901/3/21 1:59,980.0608953
1901/3/21 2:59,980.7787966
1901/3/21 3:59,984.4091795
1901/3/21 4:59,987.863779
1901/3/21 5:59,987.2048872
1901/3/21 6:59,988.0573984
1901/3/21 7:59,992.2809011
1901/3/21 8:59,990.5819888
1901/3/21 9:59,988.6472972
1901/3/21 10:59,983.8745713
1901/3/21 11:59,980.1857382
1901/3/21 12:59,979.2570868
1901/3/21 13:59,980.1745446
1901/3/21 14:59,977.8780789
1901/3/21 15:59,977.3650088
1901/3/21 16:59,973.1725301
1901/3/21 17:59,949.7931422
1901/3/21 18:59,969.9234407
1901/3/21 19:59,1060.767688
1901/3/21 20:59,1107.575821
1901/3/21 21:59,974.3643521
1901/3/21 22:59,963.0415484
1901/3/21 23:59,969.7337789
1901/3/22 0:59,965.5869109
1901/3/22 1:59,966.2328234
1901/3/22 2:59,963.3448051
1901/3/22 3:59,968.5391861
1901/3/22 4:59,965.5040413
1901/3/22 5:59,966.6579131
1901/3/22 6:59,966.3620568
1901/3/22 7:59,966.4020842
1901/3/22 8:59,964.8297928
1901/3/22 9:59,967.4036464
1901/3/22 10:59,966.0761027
1901/3/22 11:59,966.5017206
1901/3/22 12:59,964.6106291
1901/3/22 13:59,962.1419717
1901/3/22 14:59,959.7668371
1901/3/22 15:59,956.9697744
1901/3/22 16:59,953.9840869
1901/3/22 17:59,948.2744119
1901/3/22 18:59,944.7827153
1901/3/22 19:59,939.4980099
1901/3/22 20:59,936.1439477
1901/3/22 21:59,935.8907672
1901/3/22 22:59,943.4427937
1901/3/22 23:59,955.0704885
1901/3/23 0:59,963.8434407
1901/3/23 1:59,967.021707
1901/3/23 2:59,971.7828854
1901/3/23 3:59,971.7368294
1901/3/23 4:59,972.9699517
1901/3/23 5:59,973.2900945
1901/3/23 6:59,973.1546442
1901/3/23 7:59,971.7842515
1901/3/23 8:59,972.3200845
1901/3/23 9:59,969.0890717
1901/3/23 10:59,969.2956819
1901/3/23 11:59,965.6903875
1901/3/23 12:59,967.7835116
1901/3/23 13:59,966.2464753
1901/3/23 14:59,965.5662895
1901/3/23 15:59,965.3076482
1901/3/23 16:59,964.4789631
1901/3/23 17:59,964.7945988
1901/3/23 18:59,964.7093397
1901/3/23 19:59,965.3065869
1901/3/23 20:59,967.4702236
1901/3/23 21:59,963.8606763
1901/3/23 22:59,966.2040778
1901/3/23 23:59,965.510607
1901/3/24 0:59,966.315583
1901/3/24 1:59,967.4675383
1901/3/24 2:59,971.3684607
1901/3/24 3:59,968.888911
1901/3/24 4:59,977.6435849
1901/3/24 5:59,975.8838656
1901/3/24 6:59,974.7779251
1901/3/24 7:59,967.2360749
1901/3/24 8:59,967.1302009
1901/3/24 9:59,962.1607957
1901/3/24 10:59,965.96558
1901/3/24 11:59,962.6401388
1901/3/24 12:59,964.4973993
1901/3/24 13:59,964.3157009
1901/3/24 14:59,964.4651151
1901/3/24 15:59,954.1530245
1901/3/24 16:59,942.143237
1901/3/24 17:59,970.2667292
1901/3/24 18:59,1060.13933
1901/3/24 19:59,1067.978185
1901/3/24 20:59,932.919195
1901/3/24 21:59,955.0588672
1901/3/24 22:59,951.012144
1901/3/24 23:59,957.8557351
1901/3/25 0:59,954.7827115
1901/3/25 1:59,960.06836
1901/3/25 2:59,956.5010444
1901/3/25 3:59,959.118212
1901/3/25 4:59,956.8754831
1901/3/25 5:59,959.7469866
1901/3/25 6:59,956.3593893
1901/3/25 7:59,961.4117862
1901/3/25 8:59,959.0250025
1901/3/25 9:59,957.3486928
1901/3/25 10:59,959.558424
1901/3/25 11:59,958.1907989
1901/3/25 12:59,956.8563859
1901/3/25 13:59,956.9347983
1901/3/25 14:59,951.8331196
1901/3/25 15:59,950.3154091
1901/3/25 16:59,945.0068828
1901/3/25 17:59,940.0592309
1901/3/25 18:59,934.4140313
1901/3/25 19:59,932.3844571
1901/3/25 20:59,932.2023679
1901/3/25 21:59,940.5841498
1901/3/25 22:59,950.3125515
1901/3/25 23:59,960.1041301
1901/3/26 0:59,968.3383828
1901/3/26 1:59,972.8739431
1901/3/26 2:59,974.640637
1901/3/26 3:59,979.3832256
1901/3/26 4:59,977.3906667
1901/3/26 5:59,978.0878401
1901/3/26 6:59,976.6882238
1901/3/26 7:59,978.6457463
1901/3/26 8:59,978.4355909
1901/3/26 9:59,978.5332596
1901/3/26 10:59,976.2599837
1901/3/26 11:59,976.126911
1901/3/26 12:59,974.6395154
1901/3/26 13:59,975.069979
1901/3/26 14:59,972.9628573
1901/3/26 15:59,974.4383983
1901/3/26 16:59,972.7246495
1901/3/26 17:59,974.2714139
1901/3/26 18:59,975.477135
1901/3/26 19:59,975.6267717
1901/3/26 20:59,976.1015411
1901/3/26 21:59,975.9721286
1901/3/26 22:59,976.4339297
1901/3/26 23:59,977.9577276
1901/3/27 0:59,976.9077149
1901/3/27 1:59,976.8647126
1901/3/27 2:59,977.1985878
1901/3/27 3:59,980.8627715
1901/3/27 4:59,985.8541056
1901/3/27 5:59,983.993478
1901/3/27 6:59,989.1226312
1901/3/27 7:59,990.309694
1901/3/27 8:59,988.4916466
1901/3/27 9:59,983.6312749
1901/3/27 10:59,981.8473385
1901/3/27 11:59,979.7962677
1901/3/27 12:59,980.3142017
1901/3/27 13:59,978.3231987
1901/3/27 14:59,980.4671277
1901/3/27 15:59,979.8075065
1901/3/27 16:59,963.4571272
1901/3/27 17:59,951.0889563
1901/3/27 18:59,1022.352224
1901/3/27 19:59,1089.953746
1901/3/27 20:59,1160.517756
1901/3/27 21:59,1009.110795
1901/3/27 22:59,966.3365889
1901/3/27 23:59,977.9011807
1901/3/28 0:59,969.0267033
1901/3/28 1:59,974.3964422
1901/3/28 2:59,969.5240379
1901/3/28 3:59,974.030309
1901/3/28 4:59,970.7125575
1901/3/28 5:59,972.5565791
1901/3/28 6:59,970.9882397
1901/3/28 7:59,975.4585635
1901/3/28 8:59,970.6015398
1901/3/28 9:59,973.6613615
1901/3/28 10:59,970.0130647
1901/3/28 11:59,971.5761586
1901/3/28 12:59,968.9475226
1901/3/28 13:59,968.6054143
1901/3/28 14:59,964.0265432
1901/3/28 15:59,962.2539127
1901/3/28 16:59,956.0681784
1901/3/28 17:59,953.0191995
1901/3/28 18:59,946.7628086
1901/3/28 19:59,943.0249476
1901/3/28 20:59,940.8748405
1901/3/28 21:59,943.2879577
1901/3/28 22:59,948.4692692
1901/3/28 23:59,956.0748551
1901/3/29 0:59,964.620714
1901/3/29 1:59,975.9697769
1901/3/29 2:59,980.6835825
1901/3/29 3:59,984.342444
1901/3/29 4:59,984.4580317
1901/3/29 5:59,984.2012293
1901/3/29 6:59,983.5996837
1901/3/29 7:59,985.7303954
1901/3/29 8:59,981.7876637
1901/3/29 9:59,983.859959
1901/3/29 10:59,979.7438863
1901/3/29 11:59,982.4575341
1901/3/29 12:59,978.9144386
1901/3/29 13:59,980.2977667
1901/3/29 14:59,978.5604285
1901/3/29 15:59,977.4133017
1901/3/29 16:59,975.0214462
1901/3/29 17:59,978.0066135
1901/3/29 18:59,975.680964
1901/3/29 19:59,976.6220682
1901/3/29 20:59,975.8823383
1901/3/29 21:59,979.1361808
1901/3/29 22:59,978.0355608
1901/3/29 23:59,981.063594
1901/3/30 0:59,979.5619792
1901/3/30 1:59,980.8239159
1901/3/30 2:59,979.8782528
1901/3/30 3:59,979.301772
1901/3/30 4:59,980.7430106
1901/3/30 5:59,986.3209367
1901/3/30 6:59,986.1270929
1901/3/30 7:59,990.5879955
1901/3/30 8:59,992.1067353
1901/3/30 9:59,991.157809
1901/3/30 10:59,986.285867
1901/3/30 11:59,986.8627971
1901/3/30 12:59,980.4786705
1901/3/30 13:59,983.5062849
1901/3/30 14:59,977.8874945
1901/3/30 15:59,984.3309576
1901/3/30 16:59,977.8320679
1901/3/30 17:59,982.9709227
1901/3/30 18:59,959.4533751
1901/3/30 19:59,962.913776
1901/3/30 20:59,1037.069108
1901/3/30 21:59,1148.302581
1901/3/30 22:59,1042.460636
1901/3/30 23:59,957.0465816
1901/3/31 0:59,981.4301913
1901/3/31 1:59,965.6360996
1901/3/31 2:59,975.9726212
1901/3/31 3:59,968.9577552
1901/3/31 4:59,974.6766264
1901/3/31 5:59,969.4616745
1901/3/31 6:59,974.042215
1901/3/31 7:59,971.2246659
1901/3/31 8:59,972.7944388
1901/3/31 9:59,971.8105803
1901/3/31 10:59,974.4000732
1901/3/31 11:59,972.5243862
1901/3/31 12:59,972.4109468
1901/3/31 13:59,970.1017973
1901/3/31 14:59,968.8286905
1901/3/31 15:59,967.3882129
1901/3/31 16:59,966.2109221
1901/3/31 17:59,959.8372803
1901/3/31 18:59,957.537996
1901/3/31 19:59,952.0064806
1901/3/31 20:59,948.9740348
1901/3/31 21:59,943.7930095
1901/3/31 22:59,942.8211666
1901/3/31 23:59,945.5119693
1901/4/1 0:59,956.6833175
1901/4/1 1:59,965.8809973
1901/4/1 2:59,976.5555731
1901/4/1 3:59,980.8922572
1901/4/1 4:59,984.5286419
1901/4/1 5:59,982.9111005
1901/4/1 6:59,985.1544257
1901/4/1 7:59,982.5523153
1901/4/1 8:59,984.62101
1901/4/1 9:59,983.2954833
1901/4/1 10:59,981.2704392
1901/4/1 11:59,980.2601825
1901/4/1 12:59,978.3087433
1901/4/1 13:59,978.6366632
1901/4/1 14:59,977.3283653
1901/4/1 15:59,977.7715681
1901/4/1 16:59,977.248402
1901/4/1 17:59,975.2563728
1901/4/1 18:59,976.1263851
1901/4/1 19:59,976.8677274
1901/4/1 20:59,976.6554721
1901/4/1 21:59,977.4977881
1901/4/1 22:59,977.6067325
1901/4/1 23:59,976.381701
1901/4/2 0:59,979.3178493
1901/4/2 1:59,978.1706366
1901/4/2 2:59,978.5203885
1901/4/2 3:59,978.611725
1901/4/2 4:59,976.8052633
1901/4/2 5:59,977.3227039
1901/4/2 6:59,982.0589327
1901/4/2 7:59,982.6378505
1901/4/2 8:59,986.2552938
1901/4/2 9:59,987.943767
1901/4/2 10:59,989.7415885
1901/4/2 11:59,987.1685324
1901/4/2 12:59,983.5639183
1901/4/2 13:59,981.7601933
1901/4/2 14:59,977.3800131
1901/4/2 15:59,974.4943428
1901/4/2 16:59,973.212058
1901/4/2 17:59,973.1123379
1901/4/2 18:59,973.0616364
1901/4/2 19:59,972.8136493
1901/4/2 20:59,964.5929955
1901/4/2 21:59,945.3208443
1901/4/2 22:59,974.7104012
1901/4/2 23:59,1062.826508
1901/4/3 0:59,1085.726117
1901/4/3 1:59,953.4465748
1901/4/3 2:59,961.3175553
1901/4/3 3:59,960.6575504
1901/4/3 4:59,962.6342724
1901/4/3 5:59,962.3272996
1901/4/3 6:59,964.9243313
1901/4/3 7:59,960.7193836
1901/4/3 8:59,963.0754057
1901/4/3 9:59,960.2652197
1901/4/3 10:59,964.76138
1901/4/3 11:59,962.2840544
1901/4/3 12:59,963.6571378
1901/4/3 13:59,960.7628516
1901/4/3 14:59,961.5816453
1901/4/3 15:59,961.5221361
1901/4/3 16:59,961.4668141
1901/4/3 17:59,960.2259633
1901/4/3 18:59,960.0053068
1901/4/3 19:59,958.9878553
1901/4/3 20:59,954.9379466
1901/4/3 21:59,950.942885
1901/4/3 22:59,947.6840491
1901/4/3 23:59,942.5860097
1901/4/4 0:59,937.6207846
1901/4/4 1:59,934.4750305
1901/4/4 2:59,936.0891822
1901/4/4 3:59,935.6080976
1901/4/4 4:59,944.0756159
1901/4/4 5:59,951.9669588
1901/4/4 6:59,962.9822669
1901/4/4 7:59,961.6946086
1901/4/4 8:59,967.5129694
1901/4/4 9:59,966.7277087
1901/4/4 10:59,967.7461302
1901/4/4 11:59,967.8422925
1901/4/4 12:59,968.1825459
1901/4/4 13:59,965.4586336
1901/4/4 14:59,965.4016083
1901/4/4 15:59,964.8540455
1901/4/4 16:59,962.1584045
1901/4/4 17:59,960.8045287
1901/4/4 18:59,960.4842777
1901/4/4 19:59,962.642987
1901/4/4 20:59,962.3777585
1901/4/4 21:59,961.3137386
1901/4/4 22:59,961.8697066
1901/4/4 23:59,961.072728
1901/4/5 0:59,961.7745403
1901/4/5 1:59,960.2849132
1901/4/5 2:59,963.6661424
1901/4/5 3:59,960.8541525
1901/4/5 4:59,961.4013985
1901/4/5 5:59,961.24605
1901/4/5 6:59,963.1082657
1901/4/5 7:59,961.9185768
1901/4/5 8:59,962.9965768
1901/4/5 9:59,964.6468696
1901/4/5 10:59,964.787222
1901/4/5 11:59,967.0283233
1901/4/5 12:59,968.1136291
1901/4/5 13:59,971.5996566
1901/4/5 14:59,973.2288239
1901/4/5 15:59,970.6606922
1901/4/5 16:59,965.3669773
1901/4/5 17:59,963.2613237
1901/4/5 18:59,961.9942147
1901/4/5 19:59,961.1211923
1901/4/5 20:59,961.3878104
1901/4/5 21:59,960.0142881
1901/4/5 22:59,961.6067715
1901/4/5 23:59,959.9187427
1901/4/6 0:59,958.8870586
1901/4/6 1:59,937.8299531
1901/4/6 2:59,971.8098632
1901/4/6 3:59,1048.360949
1901/4/6 4:59,1090.517045
1901/4/6 5:59,943.4518754
1901/4/6 6:59,944.6815431
1901/4/6 7:59,958.5662891
1901/4/6 8:59,954.3905881
1901/4/6 9:59,956.7495314
1901/4/6 10:59,955.7428698
1901/4/6 11:59,956.7217081
1901/4/6 12:59,959.163429
1901/4/6 13:59,959.1257715
1901/4/6 14:59,960.0127976
1901/4/6 15:59,960.5444834
1901/4/6 16:59,961.9425297
1901/4/6 17:59,961.172205
1901/4/6 18:59,961.8704906
1901/4/6 19:59,960.8925187
1901/4/6 20:59,961.2546751
1901/4/6 21:59,958.0751149
1901/4/6 22:59,959.7812833
1901/4/6 23:59,955.3809137
1901/4/7 0:59,950.90809
1901/4/7 1:59,944.5362394
1901/4/7 2:59,940.0584151
1901/4/7 3:59,935.0354034
1901/4/7 4:59,936.6118872
1901/4/7 5:59,940.2695687
1901/4/7 6:59,949.5810804
1901/4/7 7:59,960.9128284
1901/4/7 8:59,970.9490885
1901/4/7 9:59,976.0179252
1901/4/7 10:59,979.4677649
1901/4/7 11:59,978.1413404
1901/4/7 12:59,980.4645695
1901/4/7 13:59,978.7271114
1901/4/7 14:59,980.1197672
1901/4/7 15:59,976.4281439
1901/4/7 16:59,978.046667
1901/4/7 17:59,976.4982993
1901/4/7 18:59,977.5970224
1901/4/7 19:59,976.1662962
1901/4/7 20:59,974.0960665
1901/4/7 21:59,974.6061371
1901/4/7 22:59,974.1458334
1901/4/7 23:59,973.7844923
1901/4/8 0:59,974.758343
1901/4/8 1:59,974.1242932
1901/4/8 2:59,976.831986
1901/4/8 3:59,977.2963933
1901/4/8 4:59,978.4519958
1901/4/8 5:59,978.0964199
1901/4/8 6:59,980.045666
1901/4/8 7:59,977.3970279
1901/4/8 8:59,980.3821557
1901/4/8 9:59,978.3266457
1901/4/8 10:59,979.2099576
1901/4/8 11:59,980.9814676
1901/4/8 12:59,985.5359421
1901/4/8 13:59,986.8971919
1901/4/8 14:59,990.986703
1901/4/8 15:59,991.3561497
1901/4/8 16:59,992.8506921
1901/4/8 17:59,988.2654234
1901/4/8 18:59,987.2989233
1901/4/8 19:59,982.1064099
1901/4/8 20:59,983.0746923
1901/4/8 21:59,980.1252447
1901/4/8 22:59,984.6335978
1901/4/8 23:59,976.523918
1901/4/9 0:59,982.7602311
1901/4/9 1:59,955.4263567
1901/4/9 2:59,968.7299661
1901/4/9 3:59,1054.041026
1901/4/9 4:59,1171.414169
1901/4/9 5:59,1113.367676
1901/4/9 6:59,954.9901853
1901/4/9 7:59,977.5328861
1901/4/9 8:59,963.970319
1901/4/9 9:59,970.2068927
1901/4/9 10:59,963.1881565
1901/4/9 11:59,968.8313715
1901/4/9 12:59,964.7412628
1901/4/9 13:59,969.5758171
1901/4/9 14:59,966.3949135
1901/4/9 15:59,969.2739333
1901/4/9 16:59,967.575339
1901/4/9 17:59,969.7574288
1901/4/9 18:59,966.7642819
1901/4/9 19:59,968.0554752
1901/4/9 20:59,964.433926
1901/4/9 21:59,963.8735514
1901/4/9 22:59,963.020825
1901/4/9 23:59,958.9600057
1901/4/10 0:59,954.1106919
1901/4/10 1:59,949.4088698
1901/4/10 2:59,943.3277822
1901/4/10 3:59,941.1709534
1901/4/10 4:59,939.2396805
1901/4/10 5:59,942.2398933
1901/4/10 6:59,951.7779754
1901/4/10 7:59,965.2140149
1901/4/10 8:59,974.4440379
1901/4/10 9:59,980.6529538
1901/4/10 10:59,982.0738597
1901/4/10 11:59,982.5513251
1901/4/10 12:59,982.6657074
1901/4/10 13:59,983.161553
1901/4/10 14:59,982.2537665
1901/4/10 15:59,979.2374923
1901/4/10 16:59,977.6028024
1901/4/10 17:59,976.4577692
1901/4/10 18:59,976.3003009
1901/4/10 19:59,975.4976958
1901/4/10 20:59,974.5970465
1901/4/10 21:59,974.7953643
1901/4/10 22:59,973.9687083
1901/4/10 23:59,974.9356642
1901/4/11 0:59,973.9309483
1901/4/11 1:59,974.26345
1901/4/11 2:59,974.4435325
1901/4/11 3:59,975.4645299
1901/4/11 4:59,977.1663748
1901/4/11 5:59,977.4293388
1901/4/11 6:59,978.9095077
1901/4/11 7:59,978.7418857
1901/4/11 8:59,978.1609081
1901/4/11 9:59,978.7748328
1901/4/11 10:59,983.1492197
1901/4/11 11:59,985.8659011
1901/4/11 12:59,988.3407461
1901/4/11 13:59,991.3955493
1901/4/11 14:59,989.6524318
1901/4/11 15:59,983.1255378
1901/4/11 16:59,982.4023815
1901/4/11 17:59,980.4668322
1901/4/11 18:59,978.1985243
1901/4/11 19:59,976.3031926
1901/4/11 20:59,978.4607391
1901/4/11 21:59,974.8549934
1901/4/11 22:59,976.5093552
1901/4/11 23:59,952.0300048
1901/4/12 0:59,962.2201559
1901/4/12 1:59,1053.668098
1901/4/12 2:59,1134.457921
1901/4/12 3:59,1000.799042
1901/4/12 4:59,962.201453
1901/4/12 5:59,977.1459916
1901/4/12 6:59,966.7766152
1901/4/12 7:59,974.040063
1901/4/12 8:59,968.2750449
1901/4/12 9:59,972.71346
1901/4/12 10:59,968.673955
1901/4/12 11:59,972.5201078
1901/4/12 12:59,969.5407865
1901/4/12 13:59,973.1187392
1901/4/12 14:59,971.7157808
1901/4/12 15:59,972.6546177
1901/4/12 16:59,969.961526
1901/4/12 17:59,972.1791353
1901/4/12 18:59,968.467141
1901/4/12 19:59,967.8163516
1901/4/12 20:59,962.896658
1901/4/12 21:59,960.601212
1901/4/12 22:59,954.0407392
1901/4/12 23:59,950.1480099
1901/4/13 0:59,945.0168527
1901/4/13 1:59,943.4402122
1901/4/13 2:59,942.0787108
1901/4/13 3:59,950.1516994
1901/4/13 4:59,960.6142528
1901/4/13 5:59,969.3981054
1901/4/13 6:59,974.2940534
1901/4/13 7:59,981.5274599
1901/4/13 8:59,981.2496719
1901/4/13 9:59,980.9751847
1901/4/13 10:59,981.1639899
1901/4/13 11:59,981.1259883
1901/4/13 12:59,980.1168996
1901/4/13 13:59,978.6525242
1901/4/13 14:59,978.050819
1901/4/13 15:59,978.1453083
1901/4/13 16:59,976.2997305
1901/4/13 17:59,975.6333441
1901/4/13 18:59,973.9095607
1901/4/13 19:59,975.6754073
1901/4/13 20:59,972.9043182
1901/4/13 21:59,974.5548474
1901/4/13 22:59,973.1456401
1901/4/13 23:59,974.1652717
1901/4/14 0:59,968.7574933
1901/4/14 1:59,973.0089611
1901/4/14 2:59,973.2836381
1901/4/14 3:59,974.22497
1901/4/14 4:59,972.6712407
1901/4/14 5:59,974.6902481
1901/4/14 6:59,971.712246
1901/4/14 7:59,972.9206192
1901/4/14 8:59,973.6009437
1901/4/14 9:59,976.5026174
1901/4/14 10:59,980.9119048
1901/4/14 11:59,980.6330198
1901/4/14 12:59,983.4228865
1901/4/14 13:59,981.5470159
1901/4/14 14:59,976.8877884
1901/4/14 15:59,974.6434584
1901/4/14 16:59,971.8769442
1901/4/14 17:59,969.5028108
1901/4/14 18:59,968.5750346
1901/4/14 19:59,970.1406538
1901/4/14 20:59,970.4900501
1901/4/14 21:59,967.5758111
1901/4/14 22:59,963.1178279
1901/4/14 23:59,939.4359209
1901/4/15 0:59,962.8712969
1901/4/15 1:59,1035.684428
1901/4/15 2:59,1087.522899
1901/4/15 3:59,960.287409
1901/4/15 4:59,954.1601021
1901/4/15 5:59,962.9965615
1901/4/15 6:59,960.0479657
1901/4/15 7:59,961.0564004
1901/4/15 8:59,961.7418368
1901/4/15 9:59,963.0634907
1901/4/15 10:59,961.7266151
1901/4/15 11:59,963.0542467
1901/4/15 12:59,959.9217883
1901/4/15 13:59,961.3749313
1901/4/15 14:59,962.8395364
1901/4/15 15:59,964.1621437
1901/4/15 16:59,963.907865
1901/4/15 17:59,960.7193616
1901/4/15 18:59,958.5996357
1901/4/15 19:59,960.9509855
1901/4/15 20:59,956.1640787
1901/4/15 21:59,956.0236894
1901/4/15 22:59,950.1716606
1901/4/15 23:59,947.631068
1901/4/16 0:59,942.7322791
1901/4/16 1:59,938.3644529
1901/4/16 2:59,935.022442
1901/4/16 3:59,936.4768779
1901/4/16 4:59,943.4228238
1901/4/16 5:59,953.8985067
1901/4/16 6:59,963.8390835
1901/4/16 7:59,967.799608
1901/4/16 8:59,968.913209
1901/4/16 9:59,969.3324691
1901/4/16 10:59,971.0066677
1901/4/16 11:59,968.1901772
1901/4/16 12:59,967.6466719
1901/4/16 13:59,968.2194672
1901/4/16 14:59,966.9216057
1901/4/16 15:59,965.7583309
1901/4/16 16:59,963.5176721
1901/4/16 17:59,963.0112492
1901/4/16 18:59,963.9458126
1901/4/16 19:59,963.7184871
1901/4/16 20:59,964.0827082
1901/4/16 21:59,960.7587973
1901/4/16 22:59,959.1635819
1901/4/16 23:59,960.012817
1901/4/17 0:59,958.8435671
1901/4/17 1:59,963.1786862
1901/4/17 2:59,960.5690745
1901/4/17 3:59,962.7899074
1901/4/17 4:59,959.3090527
1901/4/17 5:59,960.3777994
1901/4/17 6:59,960.0329461
1901/4/17 7:59,960.3905998
1901/4/17 8:59,962.1830743
1901/4/17 9:59,964.6848763
1901/4/17 10:59,966.5409459
1901/4/17 11:59,973.5590986
1901/4/17 12:59,967.4259427
1901/4/17 13:59,969.169949
1901/4/17 14:59,961.9679855
1901/4/17 15:59,963.128069
1901/4/17 16:59,959.6989248
1901/4/17 17:59,960.7623597
1901/4/17 18:59,957.3272775
1901/4/17 19:59,961.2493205
1901/4/17 20:59,955.4610107
1901/4/17 21:59,958.2576493
1901/4/17 22:59,934.6099646
1901/4/17 23:59,961.7939136
1901/4/18 0:59,1031.016594
1901/4/18 1:59,1096.920957
1901/4/18 2:59,970.0664546
1901/4/18 3:59,938.0211112
1901/4/18 4:59,961.8992053
1901/4/18 5:59,952.0417882
1901/4/18 6:59,961.6359525
1901/4/18 7:59,954.482418
1901/4/18 8:59,960.518098
1901/4/18 9:59,956.9279946
1901/4/18 10:59,960.9002594
1901/4/18 11:59,957.8453785
1901/4/18 12:59,961.5421883
1901/4/18 13:59,959.7728354
1901/4/18 14:59,963.1006189
1901/4/18 15:59,961.9795586
1901/4/18 16:59,963.3531192
1901/4/18 17:59,962.327418
1901/4/18 18:59,962.5647281
1901/4/18 19:59,961.8415884
1901/4/18 20:59,959.6186037
1901/4/18 21:59,957.1882528
1901/4/18 22:59,953.6165137
1901/4/18 23:59,947.5120685
1901/4/19 0:59,942.3060871
1901/4/19 1:59,937.3356447
1901/4/19 2:59,936.0261095
1901/4/19 3:59,936.8915419
1901/4/19 4:59,944.4086308
1901/4/19 5:59,955.5501076
1901/4/19 6:59,966.640172
1901/4/19 7:59,972.5988045
1901/4/19 8:59,977.4784876
1901/4/19 9:59,975.9882828
1901/4/19 10:59,980.1604891
1901/4/19 11:59,977.0313925
1901/4/19 12:59,979.171541
1901/4/19 13:59,975.3208389
1901/4/19 14:59,978.1773401
1901/4/19 15:59,975.1600916
1901/4/19 16:59,977.3832562
1901/4/19 17:59,974.7660575
1901/4/19 18:59,975.7444679
1901/4/19 19:59,971.8080669
1901/4/19 20:59,974.2787122
1901/4/19 21:59,970.6795686
1901/4/19 22:59,973.4997031
1901/4/19 23:59,972.1560599
1901/4/20 0:59,973.9751797
1901/4/20 1:59,972.6094446
1901/4/20 2:59,974.3612222
1901/4/20 3:59,974.1964083
1901/4/20 4:59,973.9157036
1901/4/20 5:59,974.4862134
1901/4/20 6:59,975.9432226
1901/4/20 7:59,974.783468
1901/4/20 8:59,976.4910076
1901/4/20 9:59,974.6054929
1901/4/20 10:59,975.5524591
1901/4/20 11:59,975.0069784
1901/4/20 12:59,980.4587744
1901/4/20 13:59,980.8862055
1901/4/20 14:59,985.7666238
1901/4/20 15:59,985.4598002
1901/4/20 16:59,990.903874
1901/4/20 17:59,985.5309007
1901/4/20 18:59,984.4139531
1901/4/20 19:59,975.7759988
1901/4/20 20:59,979.7401544
1901/4/20 21:59,973.3722976
1901/4/20 22:59,979.1989576
1901/4/20 23:59,972.331191
1901/4/21 0:59,976.802642
1901/4/21 1:59,970.6484886
1901/4/21 2:59,967.3603716
1901/4/21 3:59,940.3686277
1901/4/21 4:59,968.5858877
1901/4/21 5:59,1053.042082
1901/4/21 6:59,1160.436757
1901/4/21 7:59,1046.579221
1901/4/21 8:59,953.1666091
1901/4/21 9:59,975.3272618
1901/4/21 10:59,959.232099
1901/4/21 11:59,967.5567491
1901/4/21 12:59,958.7563658
1901/4/21 13:59,965.4127326
1901/4/21 14:59,959.090464
1901/4/21 15:59,963.3884471
1901/4/21 16:59,962.6196263
1901/4/21 17:59,963.4587781
1901/4/21 18:59,963.4423386
1901/4/21 19:59,964.0289156
1901/4/21 20:59,962.3327581
1901/4/21 21:59,964.3313738
1901/4/21 22:59,960.2026594
1901/4/21 23:59,960.359927
1901/4/22 0:59,955.6842421
1901/4/22 1:59,956.5979294
1901/4/22 2:59,951.4657239
1901/4/22 3:59,949.9158045
1901/4/22 4:59,942.5679075
1901/4/22 5:59,939.0305095
1901/4/22 6:59,933.5617981
1901/4/22 7:59,930.6113623
1901/4/22 8:59,930.5629608
1901/4/22 9:59,933.9426719
1901/4/22 10:59,944.577911
1901/4/22 11:59,955.1454916
1901/4/22 12:59,964.6879796
1901/4/22 13:59,968.2225353
1901/4/22 14:59,972.6636401
1901/4/22 15:59,972.5656525
1901/4/22 16:59,972.6424834
1901/4/22 17:59,974.190088
1901/4/22 18:59,974.2522431
1901/4/22 19:59,974.2446609
1901/4/22 20:59,972.6566631
1901/4/22 21:59,971.3037197
1901/4/22 22:59,970.3772786
1901/4/22 23:59,968.2002779
1901/4/23 0:59,967.580901
1901/4/23 1:59,967.7096852
1901/4/23 2:59,964.3646288
1901/4/23 3:59,963.7001415
1901/4/23 4:59,963.1645098
1901/4/23 5:59,963.9000842
1901/4/23 6:59,965.5016329
1901/4/23 7:59,963.8432841
1901/4/23 8:59,965.352317
1901/4/23 9:59,964.8306686
1901/4/23 10:59,966.0229748
1901/4/23 11:59,964.7020092
1901/4/23 12:59,968.0014293
1901/4/23 13:59,964.9523129
1901/4/23 14:59,966.4012767
1901/4/23 15:59,963.1790263
1901/4/23 16:59,966.528795
1901/4/23 17:59,968.1274084
1901/4/23 18:59,973.0867303
1901/4/23 19:59,974.0270475
1901/4/23 20:59,979.8264177
1901/4/23 21:59,976.3700106
1901/4/23 22:59,978.3145155
1901/4/23 23:59,971.4965025
1901/4/24 0:59,972.3442883
1901/4/24 1:59,966.0979498
1901/4/24 2:59,969.1549097
1901/4/24 3:59,964.834039
1901/4/24 4:59,969.1181606
1901/4/24 5:59,963.2643767
1901/4/24 6:59,965.7146257
1901/4/24 7:59,935.6904439
1901/4/24 8:59,966.1338235
1901/4/24 9:59,1050.44487
1901/4/24 10:59,1134.839735
1901/4/24 11:59,1012.875019
1901/4/24 12:59,930.2106123
1901/4/24 13:59,963.0912079
1901/4/24 14:59,951.3337205
1901/4/24 15:59,960.6545659
1901/4/24 16:59,954.0131108
1901/4/24 17:59,958.9783894
1901/4/24 18:59,955.8158178
1901/4/24 19:59,959.2321219
1901/4/24 20:59,957.7396076
1901/4/24 21:59,960.5606057
1901/4/24 22:59,959.5819199
1901/4/24 23:59,961.1663085
1901/4/25 0:59,962.0531863
1901/4/25 1:59,961.8561676
1901/4/25 2:59,958.3259857
1901/4/25 3:59,959.0852595
1901/4/25 4:59,955.8747922
1901/4/25 5:59,955.2728345
1901/4/25 6:59,950.3409152
1901/4/25 7:59,948.9854955
1901/4/25 8:59,941.6742624
1901/4/25 9:59,941.1416545
1901/4/25 10:59,937.03275
1901/4/25 11:59,936.5833908
1901/4/25 12:59,935.0182569
1901/4/25 13:59,940.7472848
1901/4/25 14:59,943.8273871
1901/4/25 15:59,955.6006928
1901/4/25 16:59,963.6419449
1901/4/25 17:59,969.401725
1901/4/25 18:59,970.1674276
1901/4/25 19:59,972.7464849
1901/4/25 20:59,971.4014097
1901/4/25 21:59,971.6474401
1901/4/25 22:59,973.3754822
1901/4/25 23:59,970.6497095
1901/4/26 0:59,970.4563691
1901/4/26 1:59,968.2098124
1901/4/26 2:59,969.5271744
1901/4/26 3:59,965.1678653
1901/4/26 4:59,967.6799516
1901/4/26 5:59,966.4251854
1901/4/26 6:59,965.8283959
1901/4/26 7:59,964.8290491
1901/4/26 8:59,964.1906857
1901/4/26 9:59,964.4194297
1901/4/26 10:59,963.6584244
1901/4/26 11:59,964.5161496
1901/4/26 12:59,964.618323
1901/4/26 13:59,965.7237139
1901/4/26 14:59,963.7894997
1901/4/26 15:59,965.2513248
1901/4/26 16:59,964.0418526
1901/4/26 17:59,964.3664432
1901/4/26 18:59,964.7418767
1901/4/26 19:59,968.3462468
1901/4/26 20:59,971.1107005
1901/4/26 21:59,972.6927574
1901/4/26 22:59,975.1522171
1901/4/26 23:59,974.7853369
1901/4/27 0:59,975.6059614
1901/4/27 1:59,969.2205411
1901/4/27 2:59,968.1240898
1901/4/27 3:59,964.8038437
1901/4/27 4:59,966.7708644
1901/4/27 5:59,962.0979259
1901/4/27 6:59,965.4216049
1901/4/27 7:59,961.2763943
1901/4/27 8:59,967.1933576
1901/4/27 9:59,950.0755924
1901/4/27 10:59,949.8412171
1901/4/27 11:59,994.4534324
1901/4/27 12:59,1084.355632
1901/4/27 13:59,1008.112524
1901/4/27 14:59,934.5556666
1901/4/27 15:59,963.6580414
1901/4/27 16:59,950.6374205
1901/4/27 17:59,961.6753352
1901/4/27 18:59,951.7677807
1901/4/27 19:59,957.9666181
1901/4/27 20:59,952.9269814
1901/4/27 21:59,960.0966366
1901/4/27 22:59,956.5431954
1901/4/27 23:59,958.7561334
1901/4/28 0:59,957.032552
1901/4/28 1:59,959.0628025
1901/4/28 2:59,957.5613575
1901/4/28 3:59,958.6910231
1901/4/28 4:59,956.4111431
1901/4/28 5:59,957.4201402
1901/4/28 6:59,956.3198574
1901/4/28 7:59,954.5149399
1901/4/28 8:59,950.8820982
1901/4/28 9:59,946.5917407
1901/4/28 10:59,941.588341
1901/4/28 11:59,937.8109703
1901/4/28 12:59,932.3320456
1901/4/28 13:59,931.4262197
1901/4/28 14:59,933.2141579
1901/4/28 15:59,944.554922
1901/4/28 16:59,952.0951007
1901/4/28 17:59,960.9376036
1901/4/28 18:59,966.3061817
1901/4/28 19:59,968.3947467
1901/4/28 20:59,964.9971385
1901/4/28 21:59,969.7110504
1901/4/28 22:59,967.309759
1901/4/28 23:59,968.5327765
1901/4/29 0:59,965.5258605
1901/4/29 1:59,966.5311416
1901/4/29 2:59,964.8443224
1901/4/29 3:59,965.8147954
1901/4/29 4:59,965.7595321
1901/4/29 5:59,963.587777
1901/4/29 6:59,961.654621
1901/4/29 7:59,964.2443455
1901/4/29 8:59,961.4056405
1901/4/29 9:59,962.8409501
1901/4/29 10:59,961.6419664
1901/4/29 11:59,963.9645146
1901/4/29 12:59,962.7936206
1901/4/29 13:59,964.0776631
1901/4/29 14:59,964.7959448
1901/4/29 15:59,965.4607644
1901/4/29 16:59,963.7685368
1901/4/29 17:59,964.7921287
1901/4/29 18:59,964.5960898
1901/4/29 19:59,968.522305
1901/4/29 20:59,971.2822047
1901/4/29 21:59,973.6278246
1901/4/29 22:59,973.3194119
1901/4/29 23:59,974.9829684
1901/4/30 0:59,976.9039496
1901/4/30 1:59,973.1061496
1901/4/30 2:59,973.0587869
1901/4/30 3:59,967.2002814
1901/4/30 4:59,968.7117789
1901/4/30 5:59,966.2657188
1901/4/30 6:59,968.7771786
1901/4/30 7:59,965.1089436
1901/4/30 8:59,969.9512573
1901/4/30 9:59,957.4803385
1901/4/30 10:59,951.0964174
1901/4/30 11:59,993.1900134
1901/4/30 12:59,1093.257044
1901/4/30 13:59,1064.401639
1901/4/30 14:59,938.538654
1901/4/30 15:59,968.9727275
1901/4/30 16:59,961.65656
1901/4/30 17:59,967.9644988
1901/4/30 18:59,963.7736443
1901/4/30 19:59,969.2581957
1901/4/30 20:59,965.6757437
1901/4/30 21:59,970.7952752
1901/4/30 22:59,966.1817757
1901/4/30 23:59,970.8440474
1901/5/1 0:59,967.931607
1901/5/1 1:59,970.6507659
1901/5/1 2:59,967.1231575
1901/5/1 3:59,970.8208775
1901/5/1 4:59,967.0728392
1901/5/1 5:59,971.2675512
1901/5/1 6:59,963.8920054
1901/5/1 7:59,966.7313306
1901/5/1 8:59,961.2058178
1901/5/1 9:59,960.1084065
1901/5/1 10:59,952.4159804
1901/5/1 11:59,950.1325312
1901/5/1 12:59,942.7132992
1901/5/1 13:59,942.8103917
1901/5/1 14:59,939.8473596
1901/5/1 15:59,949.1845711
1901/5/1 16:59,958.5422336
1901/5/1 17:59,971.681095
1901/5/1 18:59,977.5600766
1901/5/1 19:59,984.4960265
1901/5/1 20:59,984.6980992
1901/5/1 21:59,985.5978438
1901/5/1 22:59,985.504472
1901/5/1 23:59,987.7098631
1901/5/2 0:59,983.9631997
1901/5/2 1:59,986.5475231
1901/5/2 2:59,983.6956231
1901/5/2 3:59,984.2318247
1901/5/2 4:59,981.4485504
1901/5/2 5:59,983.1911637
1901/5/2 6:59,982.010971
1901/5/2 7:59,981.7527641
1901/5/2 8:59,979.8524052
1901/5/2 9:59,981.5262982
1901/5/2 10:59,979.2973659
1901/5/2 11:59,980.7656477
1901/5/2 12:59,978.5489653
1901/5/2 13:59,980.2560095
1901/5/2 14:59,978.8800061
1901/5/2 15:59,981.9775284
1901/5/2 16:59,978.9115974
1901/5/2 17:59,982.9479348
1901/5/2 18:59,980.0069198
1901/5/2 19:59,982.4460933
1901/5/2 20:59,980.0931095
1901/5/2 21:59,983.1067663
1901/5/2 22:59,980.8309322
1901/5/2 23:59,987.2155287
1901/5/3 0:59,989.1611995
1901/5/3 1:59,994.2048821
1901/5/3 2:59,994.6639529
1901/5/3 3:59,997.4704722
1901/5/3 4:59,990.7329751
1901/5/3 5:59,992.7658116
1901/5/3 6:59,985.1152234
1901/5/3 7:59,986.4255416
1901/5/3 8:59,983.7716143
1901/5/3 9:59,986.3179054
1901/5/3 10:59,980.6682718
1901/5/3 11:59,986.8516468
1901/5/3 12:59,969.955787
1901/5/3 13:59,959.9616876
1901/5/3 14:59,1019.717285
1901/5/3 15:59,1140.624618
1901/5/3 16:59,1151.517927
1901/5/3 17:59,980.8064245
1901/5/3 18:59,980.6220609
1901/5/3 19:59,974.0239957
1901/5/3 20:59,975.7322851
1901/5/3 21:59,974.411326
1901/5/3 22:59,975.4604355
1901/5/3 23:59,973.6374263
1901/5/4 0:59,975.4306719
1901/5/4 1:59,975.6022483
1901/5/4 2:59,976.1842662
1901/5/4 3:59,975.4986894
1901/5/4 4:59,975.3997119
1901/5/4 5:59,975.4065528
1901/5/4 6:59,974.0931045
1901/5/4 7:59,971.6749151
1901/5/4 8:59,968.5650961
1901/5/4 9:59,965.7994037
1901/5/4 10:59,961.8220727
1901/5/4 11:59,957.9150402
1901/5/4 12:59,952.0844468
1901/5/4 13:59,948.5278986
1901/5/4 14:59,946.292212
1901/5/4 15:59,947.8598544
1901/5/4 16:59,952.7988523
1901/5/4 17:59,963.1139616
1901/5/4 18:59,971.3918215
1901/5/4 19:59,980.7257709
1901/5/4 20:59,986.0497838
1901/5/4 21:59,989.0575171
1901/5/4 22:59,989.5189347
1901/5/4 23:59,989.2575131
1901/5/5 0:59,988.8080417
1901/5/5 1:59,986.5797266
1901/5/5 2:59,985.3897364
1901/5/5 3:59,986.7179769
1901/5/5 4:59,984.2629404
1901/5/5 5:59,983.8775422
1901/5/5 6:59,982.2572638
1901/5/5 7:59,982.6265762
1901/5/5 8:59,982.1119451
1901/5/5 9:59,981.842403
1901/5/5 10:59,981.2093543
1901/5/5 11:59,983.3739458
1901/5/5 12:59,980.8066744
1901/5/5 13:59,982.3865766
1901/5/5 14:59,981.485975
1901/5/5 15:59,983.1439892
1901/5/5 16:59,982.9954261
1901/5/5 17:59,984.6282974
1901/5/5 18:59,983.5513735
1901/5/5 19:59,985.0683039
1901/5/5 20:59,983.6174475
1901/5/5 21:59,986.3062018
1901/5/5 22:59,989.0820351
1901/5/5 23:59,992.8560407
1901/5/6 0:59,994.4875321
1901/5/6 1:59,998.9134093
1901/5/6 2:59,996.0372754
1901/5/6 3:59,994.3858148
1901/5/6 4:59,989.939231
1901/5/6 5:59,992.3290119
1901/5/6 6:59,988.9306215
1901/5/6 7:59,987.6113667
1901/5/6 8:59,986.2579982
1901/5/6 9:59,986.8062635
1901/5/6 10:59,985.8261153
1901/5/6 11:59,986.7319587
1901/5/6 12:59,965.6886362
1901/5/6 13:59,969.9533508
1901/5/6 14:59,1073.001182
1901/5/6 15:59,1136.077141
1901/5/6 16:59,991.1366747
1901/5/6 17:59,977.844205
1901/5/6 18:59,982.5012796
1901/5/6 19:59,979.026789
1901/5/6 20:59,979.6620543
1901/5/6 21:59,980.2401813
1901/5/6 22:59,980.4665306
1901/5/6 23:59,982.4401641
1901/5/7 0:59,980.9827045
1901/5/7 1:59,982.4336805
1901/5/7 2:59,983.0501933
1901/5/7 3:59,981.6834697
1901/5/7 4:59,982.2452611
1901/5/7 5:59,980.2482124
1901/5/7 6:59,980.0590824
1901/5/7 7:59,975.9811295
1901/5/7 8:59,973.432091
1901/5/7 9:59,970.6236928
1901/5/7 10:59,963.6823585
1901/5/7 11:59,960.5629201
1901/5/7 12:59,955.1665748
1901/5/7 13:59,954.6925291
1901/5/7 14:59,953.2281834
1901/5/7 15:59,957.4990082
1901/5/7 16:59,960.5618687
1901/5/7 17:59,967.5451788
1901/5/7 18:59,975.911606
1901/5/7 19:59,983.3804428
1901/5/7 20:59,985.1400694
1901/5/7 21:59,985.2368814
1901/5/7 22:59,985.8249775
1901/5/7 23:59,985.9123857
1901/5/8 0:59,983.9465709
1901/5/8 1:59,982.5702761
1901/5/8 2:59,983.2799148
1901/5/8 3:59,982.2025508
1901/5/8 4:59,979.8953128
1901/5/8 5:59,982.2639467
1901/5/8 6:59,978.4745159
1901/5/8 7:59,976.9033213
1901/5/8 8:59,977.063995
1901/5/8 9:59,975.7861495
1901/5/8 10:59,976.1691026
1901/5/8 11:59,975.1007392
1901/5/8 12:59,975.8221863
1901/5/8 13:59,975.7965642
1901/5/8 14:59,974.9752679
1901/5/8 15:59,974.9742823
1901/5/8 16:59,975.3792308
1901/5/8 17:59,975.0342207
1901/5/8 18:59,972.8884995
1901/5/8 19:59,975.274774
1901/5/8 20:59,975.7667443
1901/5/8 21:59,977.5327744
1901/5/8 22:59,980.4603822
1901/5/8 23:59,981.378169
1901/5/9 0:59,986.3228801
1901/5/9 1:59,982.9077802
1901/5/9 2:59,978.1942035
1901/5/9 3:59,972.957607
1901/5/9 4:59,972.7432061
1901/5/9 5:59,970.5172384
1901/5/9 6:59,972.9740762
1901/5/9 7:59,968.2009381
1901/5/9 8:59,967.3829675
1901/5/9 9:59,967.1730721
1901/5/9 10:59,953.1173387
1901/5/9 11:59,946.9525952
1901/5/9 12:59,1009.306122
1901/5/9 13:59,1033.637986
1901/5/9 14:59,1110.86713
1901/5/9 15:59,981.9285925
1901/5/9 16:59,941.7844711
1901/5/9 17:59,964.4084926
1901/5/9 18:59,954.1816659
1901/5/9 19:59,960.649021
1901/5/9 20:59,956.7070869
1901/5/9 21:59,962.4597111
1901/5/9 22:59,956.3231077
1901/5/9 23:59,961.327224
1901/5/10 0:59,957.5905242
1901/5/10 1:59,959.8227855
1901/5/10 2:59,960.518514
1901/5/10 3:59,960.977289
1901/5/10 4:59,958.768591
1901/5/10 5:59,960.3930081
1901/5/10 6:59,952.8702641
1901/5/10 7:59,953.9800438
1901/5/10 8:59,951.3161506
1901/5/10 9:59,950.2331285
1901/5/10 10:59,941.8805587
1901/5/10 11:59,938.9641161
1901/5/10 12:59,931.9544864
1901/5/10 13:59,930.2388119
1901/5/10 14:59,926.1272466
1901/5/10 15:59,933.4634057
1901/5/10 16:59,939.7220589
1901/5/10 17:59,953.8460241
1901/5/10 18:59,956.2120624
1901/5/10 19:59,964.1638096
1901/5/10 20:59,962.735941
1901/5/10 21:59,965.952479
1901/5/10 22:59,963.5201146
1901/5/10 23:59,965.0485882
1901/5/11 0:59,960.8519475
1901/5/11 1:59,962.9090106
1901/5/11 2:59,961.0542874
1901/5/11 3:59,962.1410297
1901/5/11 4:59,958.5641113
1901/5/11 5:59,961.4436423
1901/5/11 6:59,956.8517253
1901/5/11 7:59,958.7101238
1901/5/11 8:59,956.131893
1901/5/11 9:59,958.2099231
1901/5/11 10:59,955.7018621
1901/5/11 11:59,960.0706198
1901/5/11 12:59,958.5586257
1901/5/11 13:59,960.1489225
1901/5/11 14:59,959.2246743
1901/5/11 15:59,960.0926683
1901/5/11 16:59,958.3039371
1901/5/11 17:59,957.7285912
1901/5/11 18:59,958.1472167
1901/5/11 19:59,960.2828411
1901/5/11 20:59,959.0430475
1901/5/11 21:59,962.7407411
1901/5/11 22:59,964.7238808
1901/5/11 23:59,970.0459122
1901/5/12 0:59,969.1594347
1901/5/12 1:59,974.8305877
1901/5/12 2:59,972.1652191
1901/5/12 3:59,970.4304035
1901/5/12 4:59,967.0456236
1901/5/12 5:59,966.8432475
1901/5/12 6:59,962.4702878
1901/5/12 7:59,967.7198019
1901/5/12 8:59,961.4461549
1901/5/12 9:59,968.0735229
1901/5/12 10:59,961.3238444
1901/5/12 11:59,966.6727324
1901/5/12 12:59,955.2922107
1901/5/12 13:59,944.1922624
1901/5/12 14:59,983.3433732
1901/5/12 15:59,1086.377246
1901/5/12 16:59,1080.535197
1901/5/12 17:59,939.4546449
1901/5/12 18:59,959.8462278
1901/5/12 19:59,955.9517663
1901/5/12 20:59,960.060362
1901/5/12 21:59,955.6317428
1901/5/12 22:59,959.2211041
1901/5/12 23:59,957.3919623
1901/5/13 0:59,960.1115303
1901/5/13 1:59,959.6967431
1901/5/13 2:59,959.1249857
1901/5/13 3:59,959.1051772
1901/5/13 4:59,959.7196282
1901/5/13 5:59,959.4529702
1901/5/13 6:59,959.8533062
1901/5/13 7:59,959.5095728
1901/5/13 8:59,958.2367455
1901/5/13 9:59,957.165613
1901/5/13 10:59,953.6927794
1901/5/13 11:59,950.9202322
1901/5/13 12:59,944.8354474
1901/5/13 13:59,939.7028366
1901/5/13 14:59,935.797377
1901/5/13 15:59,931.7312525
1901/5/13 16:59,929.0163686
1901/5/13 17:59,934.2350353
1901/5/13 18:59,934.0103914
1901/5/13 19:59,942.9732707
1901/5/13 20:59,952.3537522
1901/5/13 21:59,963.5550651
1901/5/13 22:59,969.2358949
1901/5/13 23:59,973.9486047
1901/5/14 0:59,973.5386187
1901/5/14 1:59,974.6256519
1901/5/14 2:59,972.8963331
1901/5/14 3:59,973.6876282
1901/5/14 4:59,972.1517977
1901/5/14 5:59,972.8266484
1901/5/14 6:59,971.6206831
1901/5/14 7:59,971.6472825
1901/5/14 8:59,970.0840774
1901/5/14 9:59,970.2590182
1901/5/14 10:59,968.4074194
1901/5/14 11:59,968.1327637
1901/5/14 12:59,969.0473102
1901/5/14 13:59,967.6031678
1901/5/14 14:59,968.1903349
1901/5/14 15:59,967.2829302
1901/5/14 16:59,967.5650597
1901/5/14 17:59,968.6977771
1901/5/14 18:59,970.0283364
1901/5/14 19:59,969.8197031
1901/5/14 20:59,970.0127922
1901/5/14 21:59,971.2180707
1901/5/14 22:59,971.9970219
1901/5/14 23:59,971.3643049
1901/5/15 0:59,971.2038325
1901/5/15 1:59,973.1617172
1901/5/15 2:59,970.6180398
1901/5/15 3:59,974.1559853
1901/5/15 4:59,977.0023905
1901/5/15 5:59,980.1739174
1901/5/15 6:59,982.6563476
1901/5/15 7:59,980.5929136
1901/5/15 8:59,978.0621036
1901/5/15 9:59,975.4494652
1901/5/15 10:59,971.8992291
1901/5/15 11:59,971.4330894
1901/5/15 12:59,969.8758413
1901/5/15 13:59,970.1454591
1901/5/15 14:59,970.8399186
1901/5/15 15:59,969.1680135
1901/5/15 16:59,959.3204069
1901/5/15 17:59,940.1279046
1901/5/15 18:59,990.5405696
1901/5/15 19:59,1094.210855
1901/5/15 20:59,1149.492189
1901/5/15 21:59,992.4852777
1901/5/15 22:59,955.8831037
1901/5/15 23:59,969.0776165
1901/5/16 0:59,962.4873293
1901/5/16 1:59,960.2318121
1901/5/16 2:59,958.4489771
1901/5/16 3:59,960.0307059
1901/5/16 4:59,959.9549479
1901/5/16 5:59,960.2597402
1901/5/16 6:59,960.3098456
1901/5/16 7:59,961.1590055
1901/5/16 8:59,961.4846981
1901/5/16 9:59,962.0462449
1901/5/16 10:59,959.6293667
1901/5/16 11:59,960.7078412
1901/5/16 12:59,960.1357645
1901/5/16 13:59,957.435034
1901/5/16 14:59,956.716883
1901/5/16 15:59,952.7145563
1901/5/16 16:59,949.816567
1901/5/16 17:59,946.1573488
1901/5/16 18:59,940.6510444
1901/5/16 19:59,937.7865391
1901/5/16 20:59,933.2061045
1901/5/16 21:59,933.6484625
1901/5/16 22:59,930.9092698
1901/5/16 23:59,936.2549349
1901/5/17 0:59,940.5355107
1901/5/17 1:59,953.296063
1901/5/17 2:59,961.6969512
1901/5/17 3:59,970.2514664
1901/5/17 4:59,971.9252049
1901/5/17 5:59,974.2803806
1901/5/17 6:59,972.8965867
1901/5/17 7:59,973.4223175
1901/5/17 8:59,973.4374685
1901/5/17 9:59,973.6977737
1901/5/17 10:59,972.054479
1901/5/17 11:59,973.8289097
1901/5/17 12:59,972.0812127
1901/5/17 13:59,971.9741184
1901/5/17 14:59,972.5119857
1901/5/17 15:59,971.7039908
1901/5/17 16:59,971.1931755
1901/5/17 17:59,971.0113183
1901/5/17 18:59,970.5810107
1901/5/17 19:59,969.5856266
1901/5/17 20:59,971.7909522
1901/5/17 21:59,972.1768828
1901/5/17 22:59,969.2983282
1901/5/17 23:59,972.3017149
1901/5/18 0:59,972.8398528
1901/5/18 1:59,974.9069907
1901/5/18 2:59,973.8229977
1901/5/18 3:59,976.9642194
1901/5/18 4:59,975.8421224
1901/5/18 5:59,978.7164049
1901/5/18 6:59,975.7414703
1901/5/18 7:59,976.6375165
1901/5/18 8:59,977.9324444
1901/5/18 9:59,982.201004
1901/5/18 10:59,983.5022596
1901/5/18 11:59,984.4814261
1901/5/18 12:59,987.5342399
1901/5/18 13:59,989.3519057
1901/5/18 14:59,986.2050571
1901/5/18 15:59,982.5491718
1901/5/18 16:59,979.5724633
1901/5/18 17:59,979.8718468
1901/5/18 18:59,977.1131553
1901/5/18 19:59,978.737925
1901/5/18 20:59,977.6902026
1901/5/18 21:59,979.4568149
1901/5/18 22:59,968.3291939
1901/5/18 23:59,947.7298099
1901/5/19 0:59,943.9588724
1901/5/19 1:59,1001.991887
1901/5/19 2:59,1059.36441
1901/5/19 3:59,1141.448545
1901/5/19 4:59,1007.844654
1901/5/19 5:59,962.8651417
1901/5/19 6:59,977.7327534
1901/5/19 7:59,968.7225129
1901/5/19 8:59,974.1903512
1901/5/19 9:59,971.4443563
1901/5/19 10:59,974.3495639
1901/5/19 11:59,971.8387872
1901/5/19 12:59,976.8582152
1901/5/19 13:59,972.1534344
1901/5/19 14:59,975.8603195
1901/5/19 15:59,972.8465888
1901/5/19 16:59,975.3545066
1901/5/19 17:59,972.5826702
1901/5/19 18:59,972.7685216
1901/5/19 19:59,972.6998232
1901/5/19 20:59,970.0920118
1901/5/19 21:59,971.4603312
1901/5/19 22:59,968.5741734
1901/5/19 23:59,966.1802892
1901/5/20 0:59,962.1503067
1901/5/20 1:59,958.2628336
1901/5/20 2:59,954.8128578
1901/5/20 3:59,950.7670012
1901/5/20 4:59,947.094592
1901/5/20 5:59,947.0371386
1901/5/20 6:59,949.9909672
1901/5/20 7:59,957.5442036
1901/5/20 8:59,967.4090443
1901/5/20 9:59,974.4660911
1901/5/20 10:59,979.5515389
1901/5/20 11:59,980.9337047
1901/5/20 12:59,980.5775181
1901/5/20 13:59,980.4960648
1901/5/20 14:59,980.215817
1901/5/20 15:59,980.304182
1901/5/20 16:59,979.3671813
1901/5/20 17:59,979.0314636
1901/5/20 18:59,981.8901559
1901/5/20 19:59,980.4282082
1901/5/20 20:59,980.0359851
1901/5/20 21:59,980.6668453
1901/5/20 22:59,980.1423355
1901/5/20 23:59,979.883278
1901/5/21 0:59,978.9907912
1901/5/21 1:59,980.4915189
1901/5/21 2:59,980.1779102
1901/5/21 3:59,979.7199347
1901/5/21 4:59,981.4600553
1901/5/21 5:59,981.5682603
1901/5/21 6:59,977.5785753
1901/5/21 7:59,980.4511399
1901/5/21 8:59,979.4020641
1901/5/21 9:59,979.5479094
1901/5/21 10:59,977.6993961
1901/5/21 11:59,980.8345794
1901/5/21 12:59,979.4659383
1901/5/21 13:59,985.2569576
1901/5/21 14:59,985.7604208
1901/5/21 15:59,989.8577776
1901/5/21 16:59,987.7074239
1901/5/21 17:59,984.5593028
1901/5/21 18:59,981.4432929
1901/5/21 19:59,981.442091
1901/5/21 20:59,977.2624946
1901/5/21 21:59,979.1863515
1901/5/21 22:59,977.4442753
1901/5/21 23:59,982.6139799
1901/5/22 0:59,977.5671398
1901/5/22 1:59,977.4445273
1901/5/22 2:59,961.1216444
1901/5/22 3:59,969.9879519
1901/5/22 4:59,1042.85021
1901/5/22 5:59,1102.341737
1901/5/22 6:59,973.5538311
1901/5/22 7:59,963.3025298
1901/5/22 8:59,974.7318001
1901/5/22 9:59,969.3274718
1901/5/22 10:59,971.3983116
1901/5/22 11:59,970.4634398
1901/5/22 12:59,974.3370843
1901/5/22 13:59,972.1985816
1901/5/22 14:59,975.4508082
1901/5/22 15:59,975.098943
1901/5/22 16:59,976.2358817
1901/5/22 17:59,975.7653099
1901/5/22 18:59,974.4610319
1901/5/22 19:59,974.1607926
1901/5/22 20:59,973.8983343
1901/5/22 21:59,973.4756308
1901/5/22 22:59,972.9249095
1901/5/22 23:59,970.1615601
1901/5/23 0:59,967.1051805
1901/5/23 1:59,962.0348754
1901/5/23 2:59,956.4804128
1901/5/23 3:59,951.6689056
1901/5/23 4:59,947.9229252
1901/5/23 5:59,945.1889827
1901/5/23 6:59,947.9006643
1901/5/23 7:59,957.5841635
1901/5/23 8:59,970.2176602
1901/5/23 9:59,975.240022
1901/5/23 10:59,982.7360702
1901/5/23 11:59,984.9319807
1901/5/23 12:59,987.8091884
1901/5/23 13:59,987.5795113
1901/5/23 14:59,986.5801337
1901/5/23 15:59,987.2493815
1901/5/23 16:59,988.8374874
1901/5/23 17:59,987.1441117
1901/5/23 18:59,987.0519329
1901/5/23 19:59,987.9980192
1901/5/23 20:59,989.6181394
1901/5/23 21:59,988.5886028
1901/5/23 22:59,987.2871993
1901/5/23 23:59,988.0103627
1901/5/24 0:59,989.0015852
1901/5/24 1:59,990.7279896
1901/5/24 2:59,989.2902853
1901/5/24 3:59,991.8675619
1901/5/24 4:59,992.5213509
1901/5/24 5:59,993.3514948
1901/5/24 6:59,993.8121317
1901/5/24 7:59,994.6918175
1901/5/24 8:59,994.1231902
1901/5/24 9:59,995.7933861
1901/5/24 10:59,995.2523896
1901/5/24 11:59,999.5924047
1901/5/24 12:59,1003.410585
1901/5/24 13:59,1004.670944
1901/5/24 14:59,1008.739148
1901/5/24 15:59,1012.616854
1901/5/24 16:59,1008.245882
1901/5/24 17:59,1006.279975
1901/5/24 18:59,1001.299741
1901/5/24 19:59,1001.765345
1901/5/24 20:59,998.5669417
1901/5/24 21:59,1001.572384
1901/5/24 22:59,997.4027118
1901/5/24 23:59,998.9968046
1901/5/25 0:59,973.1361361
1901/5/25 1:59,998.7387361
1901/5/25 2:59,1091.154755
1901/5/25 3:59,1158.121007
1901/5/25 4:59,999.3622707
1901/5/25 5:59,968.7077309
1901/5/25 6:59,994.9804587
1901/5/25 7:59,988.2757004
1901/5/25 8:59,991.9895031
1901/5/25 9:59,989.5196133
1901/5/25 10:59,994.8823683
1901/5/25 11:59,991.7033052
1901/5/25 12:59,994.7052107
1901/5/25 13:59,993.9197106
1901/5/25 14:59,997.7365043
1901/5/25 15:59,995.2898082
1901/5/25 16:59,997.5455595
1901/5/25 17:59,996.0528365
1901/5/25 18:59,995.6043005
1901/5/25 19:59,993.8113738
1901/5/25 20:59,993.7007616
1901/5/25 21:59,989.310635
1901/5/25 22:59,985.5557323
1901/5/25 23:59,979.9941783
1901/5/26 0:59,975.2972209
1901/5/26 1:59,970.9202905
1901/5/26 2:59,968.7611952
1901/5/26 3:59,966.3739672
1901/5/26 4:59,972.1715944
1901/5/26 5:59,980.0693871
1901/5/26 6:59,991.0928835
1901/5/26 7:59,1000.055307
1901/5/26 8:59,1006.432765
1901/5/26 9:59,1007.599208
1901/5/26 10:59,1010.515404
1901/5/26 11:59,1008.600858
1901/5/26 12:59,1010.247573
1901/5/26 13:59,1008.986489
1901/5/26 14:59,1010.220763
1901/5/26 15:59,1008.643468
1901/5/26 16:59,1008.717167
1901/5/26 17:59,1007.062886
1901/5/26 18:59,1007.517857
1901/5/26 19:59,1006.879964
1901/5/26 20:59,1007.689028
1901/5/26 21:59,1006.437831
1901/5/26 22:59,1007.254632
1901/5/26 23:59,1006.82872
1901/5/27 0:59,1006.996783
1901/5/27 1:59,1008.109406
1901/5/27 2:59,1009.566518
1901/5/27 3:59,1009.973635
1901/5/27 4:59,1011.714016
1901/5/27 5:59,1013.030713
1901/5/27 6:59,1013.536589
1901/5/27 7:59,1014.131134
1901/5/27 8:59,1013.391674
1901/5/27 9:59,1014.28491
1901/5/27 10:59,1017.589942
1901/5/27 11:59,1021.402892
1901/5/27 12:59,1022.781455
1901/5/27 13:59,1024.735025
1901/5/27 14:59,1026.334132
1901/5/27 15:59,1027.307376
1901/5/27 16:59,1023.85221
1901/5/27 17:59,1020.44108
1901/5/27 18:59,1016.466728
1901/5/27 19:59,1017.02855
1901/5/27 20:59,1012.53518
1901/5/27 21:59,1015.253317
1901/5/27 22:59,1010.871165
1901/5/27 23:59,1015.474506
1901/5/28 0:59,990.7625491
1901/5/28 1:59,999.6773506
1901/5/28 2:59,1083.371015
1901/5/28 3:59,1184.32828
1901/5/28 4:59,1071.138434
1901/5/28 5:59,990.5600681
1901/5/28 6:59,1014.905515
1901/5/28 7:59,999.7352
1901/5/28 8:59,1006.404193
1901/5/28 9:59,1000.538931
1901/5/28 10:59,1006.070661
1901/5/28 11:59,1001.199312
1901/5/28 12:59,1005.283805
1901/5/28 13:59,1003.228551
1901/5/28 14:59,1005.878152
1901/5/28 15:59,1004.126088
1901/5/28 16:59,1005.273252
1901/5/28 17:59,1002.89989
1901/5/28 18:59,1004.439144
1901/5/28 19:59,999.9859625
1901/5/28 20:59,1001.113541
1901/5/28 21:59,995.5157378
1901/5/28 22:59,995.08371
1901/5/28 23:59,989.2397953
1901/5/29 0:59,985.6794376
1901/5/29 1:59,979.8212461
1901/5/29 2:59,978.2598571
1901/5/29 3:59,972.0222644
1901/5/29 4:59,974.901215
1901/5/29 5:59,976.221434
1901/5/29 6:59,988.1305071
1901/5/29 7:59,993.6102193
1901/5/29 8:59,1005.352417
1901/5/29 9:59,1007.544331
1901/5/29 10:59,1014.601866
1901/5/29 11:59,1011.900523
1901/5/29 12:59,1015.440872
1901/5/29 13:59,1013.895479
1901/5/29 14:59,1015.112176
1901/5/29 15:59,1011.64064
1901/5/29 16:59,1012.967215
1901/5/29 17:59,1008.540937
1901/5/29 18:59,1012.256864
1901/5/29 19:59,1007.392198
1901/5/29 20:59,1011.427145
1901/5/29 21:59,1007.310775
1901/5/29 22:59,1008.477517
1901/5/29 23:59,1008.146028
1901/5/30 0:59,1009.822911
1901/5/30 1:59,1007.652495
1901/5/30 2:59,1008.724757
1901/5/30 3:59,1007.735769
1901/5/30 4:59,1010.44049
1901/5/30 5:59,1008.952093
1901/5/30 6:59,1011.064189
1901/5/30 7:59,1009.048679
1901/5/30 8:59,1011.31888
1901/5/30 9:59,1009.378234
1901/5/30 10:59,1012.22382
1901/5/30 11:59,1010.955244
1901/5/30 12:59,1015.372021
1901/5/30 13:59,1016.862241
1901/5/30 14:59,1021.824333
1901/5/30 15:59,1019.800633
1901/5/30 16:59,1021.190457
1901/5/30 17:59,1018.219206
1901/5/30 18:59,1017.23618
1901/5/30 19:59,1012.988626
1901/5/30 20:59,1012.829831
1901/5/30 21:59,1006.570283
1901/5/30 22:59,1010.973741
1901/5/30 23:59,1007.530747
1901/5/31 0:59,1008.516965
1901/5/31 1:59,985.9046036
1901/5/31 2:59,987.4410005
1901/5/31 3:59,1057.745061
1901/5/31 4:59,1142.699221
1901/5/31 5:59,1029.509853
1901/5/31 6:59,986.7565032
1901/5/31 7:59,1004.030264
1901/5/31 8:59,991.911107
1901/5/31 9:59,999.8590021
1901/5/31 10:59,994.7104605
1901/5/31 11:59,996.613531
1901/5/31 12:59,994.9162168
1901/5/31 13:59,996.3427804
1901/5/31 14:59,993.3711695
1901/5/31 15:59,995.8026015
1901/5/31 16:59,994.1989138
1901/5/31 17:59,993.4255955
1901/5/31 18:59,994.6340022
1901/5/31 19:59,993.5381584
1901/5/31 20:59,989.6437399
1901/5/31 21:59,987.9006257
1901/5/31 22:59,984.7037357
1901/5/31 23:59,982.5314275
1901/6/1 0:59,975.9039623
1901/6/1 1:59,973.8279212
1901/6/1 2:59,969.5432187
1901/6/1 3:59,967.9146171
1901/6/1 4:59,965.6373006
1901/6/1 5:59,964.4105642
1901/6/1 6:59,971.1004414
1901/6/1 7:59,978.2177722
1901/6/1 8:59,988.424861
1901/6/1 9:59,993.8540246
1901/6/1 10:59,995.0390764
1901/6/1 11:59,997.1764769
1901/6/1 12:59,996.0759517
1901/6/1 13:59,994.0969491
1901/6/1 14:59,995.1108883
1901/6/1 15:59,993.0641409
1901/6/1 16:59,991.4761131
1901/6/1 17:59,988.8817956
1901/6/1 18:59,990.103085
1901/6/1 19:59,987.9386217
1901/6/1 20:59,989.2459815
1901/6/1 21:59,987.0486239
1901/6/1 22:59,989.1488502
1901/6/1 23:59,986.3427275
1901/6/2 0:59,987.2965567
1901/6/2 1:59,985.7083789
1901/6/2 2:59,987.1668335
1901/6/2 3:59,987.8221437
1901/6/2 4:59,987.7759742
1901/6/2 5:59,987.2841968
1901/6/2 6:59,987.131495
1901/6/2 7:59,987.0057874
1901/6/2 8:59,987.9520119
1901/6/2 9:59,986.6060895
1901/6/2 10:59,985.9913607
1901/6/2 11:59,987.3195469
1901/6/2 12:59,990.4672001
1901/6/2 13:59,989.3012675
1901/6/2 14:59,993.1613438
1901/6/2 15:59,994.9053809
1901/6/2 16:59,994.1365574
1901/6/2 17:59,987.9439071
1901/6/2 18:59,987.8466042
1901/6/2 19:59,983.0539535
1901/6/2 20:59,986.1574519
1901/6/2 21:59,982.3526402
1901/6/2 22:59,984.3898588
1901/6/2 23:59,979.5733226
1901/6/3 0:59,983.6163756
1901/6/3 1:59,962.7133005
1901/6/3 2:59,973.2257012
1901/6/3 3:59,1033.337554
1901/6/3 4:59,1110.579878
1901/6/3 5:59,997.265347
1901/6/3 6:59,954.4741962
1901/6/3 7:59,980.7480708
1901/6/3 8:59,970.2779296
1901/6/3 9:59,979.3644171
1901/6/3 10:59,974.5603977
1901/6/3 11:59,979.2011507
1901/6/3 12:59,976.9196143
1901/6/3 13:59,981.6540134
1901/6/3 14:59,974.8138141
1901/6/3 15:59,977.7898602
1901/6/3 16:59,977.3164527
1901/6/3 17:59,980.9636753
1901/6/3 18:59,977.2996027
1901/6/3 19:59,978.6642829
1901/6/3 20:59,975.3519661
1901/6/3 21:59,977.9377403
1901/6/3 22:59,974.3161148
1901/6/3 23:59,972.4437595
1901/6/4 0:59,965.8655588
1901/6/4 1:59,963.4884207
1901/6/4 2:59,957.7599227
1901/6/4 3:59,953.4459719
1901/6/4 4:59,946.9829523
1901/6/4 5:59,951.1899628
1901/6/4 6:59,956.1159955
1901/6/4 7:59,966.6601607
1901/6/4 8:59,972.1968647
1901/6/4 9:59,983.6027298
1901/6/4 10:59,986.0548105
1901/6/4 11:59,991.0237027
1901/6/4 12:59,990.5215094
1901/6/4 13:59,992.4615587
1901/6/4 14:59,990.6521483
1901/6/4 15:59,992.2654073
1901/6/4 16:59,989.7086518
1901/6/4 17:59,991.8845088
1901/6/4 18:59,990.7317162
1901/6/4 19:59,991.8775731
1901/6/4 20:59,990.1753838
1901/6/4 21:59,990.8479322
1901/6/4 22:59,989.5542264
1901/6/4 23:59,989.9392419
1901/6/5 0:59,989.0700544
1901/6/5 1:59,989.6120996
1901/6/5 2:59,987.6929526
1901/6/5 3:59,990.2391457
1901/6/5 4:59,990.8514067
1901/6/5 5:59,991.5345447
1901/6/5 6:59,991.5889456
1901/6/5 7:59,991.4952973
1901/6/5 8:59,992.2899569
1901/6/5 9:59,993.6532886
1901/6/5 10:59,991.1268767
1901/6/5 11:59,992.9677618
1901/6/5 12:59,991.103032
1901/6/5 13:59,995.5393552
1901/6/5 14:59,995.7260474
1901/6/5 15:59,1000.000069
1901/6/5 16:59,1001.01623
1901/6/5 17:59,1006.344639
1901/6/5 18:59,1000.106691
1901/6/5 19:59,999.5033237
1901/6/5 20:59,994.7134749
1901/6/5 21:59,996.8041486
1901/6/5 22:59,990.6633455
1901/6/5 23:59,995.0578733
1901/6/6 0:59,989.7619553
1901/6/6 1:59,995.68016
1901/6/6 2:59,990.1712243
1901/6/6 3:59,992.4035167
1901/6/6 4:59,967.5538902
1901/6/6 5:59,976.2635024
1901/6/6 6:59,1048.919626
1901/6/6 7:59,1162.392673
1901/6/6 8:59,1062.903161
1901/6/6 9:59,967.3300022
1901/6/6 10:59,994.7590949
1901/6/6 11:59,977.3058413
1901/6/6 12:59,988.836123
1901/6/6 13:59,980.2314006
1901/6/6 14:59,987.4357948
1901/6/6 15:59,980.6818509
1901/6/6 16:59,985.1891566
1901/6/6 17:59,982.3684126
1901/6/6 18:59,985.8882811
1901/6/6 19:59,982.8076623
1901/6/6 20:59,984.7676603
1901/6/6 21:59,981.7834986
1901/6/6 22:59,982.2119232
1901/6/6 23:59,981.3237033
1901/6/7 0:59,980.0167584
1901/6/7 1:59,977.2434392
1901/6/7 2:59,974.4929659
1901/6/7 3:59,968.9095831
1901/6/7 4:59,966.376832
1901/6/7 5:59,959.9238119
1901/6/7 6:59,955.521659
1901/6/7 7:59,951.852453
1901/6/7 8:59,953.4773297
1901/6/7 9:59,956.4469012
1901/6/7 10:59,968.8891949
1901/6/7 11:59,978.5752175
1901/6/7 12:59,987.5968941
1901/6/7 13:59,991.4866395
1901/6/7 14:59,995.695643
1901/6/7 15:59,994.4936947
1901/6/7 16:59,996.0668181
1901/6/7 17:59,993.5125172
1901/6/7 18:59,995.088141
1901/6/7 19:59,993.4402208
1901/6/7 20:59,994.2836625
1901/6/7 21:59,992.6366957
1901/6/7 22:59,993.4595856
1901/6/7 23:59,991.2528814
1901/6/8 0:59,992.0786489
1901/6/8 1:59,990.0800619
1901/6/8 2:59,989.7128921
1901/6/8 3:59,989.3261574
1901/6/8 4:59,987.424237
1901/6/8 5:59,987.3060411
1901/6/8 6:59,989.5164016
1901/6/8 7:59,987.6687765
1901/6/8 8:59,988.3782675
1901/6/8 9:59,988.6802639
1901/6/8 10:59,989.0844132
1901/6/8 11:59,988.6605205
1901/6/8 12:59,990.4363665
1901/6/8 13:59,990.2668775
1901/6/8 14:59,990.0646658
1901/6/8 15:59,988.4611248
1901/6/8 16:59,993.6802929
1901/6/8 17:59,992.9693254
1901/6/8 18:59,998.2280672
1901/6/8 19:59,997.4333532
1901/6/8 20:59,1002.165613
1901/6/8 21:59,1001.73896
1901/6/8 22:59,1000.552211
1901/6/8 23:59,994.8678293
1901/6/9 0:59,994.5017654
1901/6/9 1:59,990.2293926
1901/6/9 2:59,991.6271705
1901/6/9 3:59,988.7370163
1901/6/9 4:59,989.5035875
1901/6/9 5:59,987.808185
1901/6/9 6:59,984.2350012
1901/6/9 7:59,957.4267189
1901/6/9 8:59,990.8110076
1901/6/9 9:59,1079.678257
1901/6/9 10:59,1150.240773
1901/6/9 11:59,1012.495624
1901/6/9 12:59,973.7194797
1901/6/9 13:59,985.3914666
1901/6/9 14:59,977.2261007
1901/6/9 15:59,981.1855534
1901/6/9 16:59,978.0452798
1901/6/9 17:59,980.1143714
1901/6/9 18:59,979.5306455
1901/6/9 19:59,981.1846008
1901/6/9 20:59,979.7893546
1901/6/9 21:59,980.8579641
1901/6/9 22:59,980.1310017
1901/6/9 23:59,981.000816
1901/6/10 0:59,979.3494467
1901/6/10 1:59,979.5122131
1901/6/10 2:59,976.745184
1901/6/10 3:59,974.6318951
1901/6/10 4:59,971.8689706
1901/6/10 5:59,968.6524123
1901/6/10 6:59,963.429464
1901/6/10 7:59,959.4359073
1901/6/10 8:59,953.2681686
1901/6/10 9:59,949.6728742
1901/6/10 10:59,948.9023631
1901/6/10 11:59,950.2543007
1901/6/10 12:59,953.2442953
1901/6/10 13:59,962.0059515
1901/6/10 14:59,973.3654131
1901/6/10 15:59,980.6144637
1901/6/10 16:59,986.3021463
1901/6/10 17:59,988.9441743
1901/6/10 18:59,989.1193436
1901/6/10 19:59,989.8437522
1901/6/10 20:59,988.1496397
1901/6/10 21:59,989.3485995
1901/6/10 22:59,986.5164945
1901/6/10 23:59,986.6755285
1901/6/11 0:59,985.5493868
1901/6/11 1:59,985.0976649
1901/6/11 2:59,983.6070498
1901/6/11 3:59,984.7379298
1901/6/11 4:59,981.4121324
1901/6/11 5:59,982.8233768
1901/6/11 6:59,983.1317152
1901/6/11 7:59,982.9892974
1901/6/11 8:59,984.0649841
1901/6/11 9:59,981.2507309
1901/6/11 10:59,983.9160412
1901/6/11 11:59,985.3307795
1901/6/11 12:59,984.9969227
1901/6/11 13:59,985.3464777
1901/6/11 14:59,987.519969
1901/6/11 15:59,985.7268383
1901/6/11 16:59,986.5724216
1901/6/11 17:59,984.9772431
1901/6/11 18:59,988.5581396
1901/6/11 19:59,990.9206984
1901/6/11 20:59,994.8604304
1901/6/11 21:59,993.699372
1901/6/11 22:59,996.6339962
1901/6/11 23:59,993.9827716
1901/6/12 0:59,994.4239982
1901/6/12 1:59,990.1529365
1901/6/12 2:59,991.2717156
1901/6/12 3:59,984.0822379
1901/6/12 4:59,986.6039611
1901/6/12 5:59,981.1593079
1901/6/12 6:59,983.3668606
1901/6/12 7:59,977.8580061
1901/6/12 8:59,981.9728632
1901/6/12 9:59,956.8710991
1901/6/12 10:59,967.3065644
1901/6/12 11:59,1020.88938
1901/6/12 12:59,1105.380496
1901/6/12 13:59,1018.335012
1901/6/12 14:59,949.9490639
1901/6/12 15:59,978.8175089
1901/6/12 16:59,963.8369659
1901/6/12 17:59,974.9661792
1901/6/12 18:59,967.4981275
1901/6/12 19:59,974.2396933
1901/6/12 20:59,967.1941977
1901/6/12 21:59,973.5428072
1901/6/12 22:59,967.4820834
1901/6/12 23:59,970.2678248
1901/6/13 0:59,968.2656393
1901/6/13 1:59,971.5188055
1901/6/13 2:59,968.220854
1901/6/13 3:59,968.523397
1901/6/13 4:59,967.8265774
1901/6/13 5:59,970.2238026
1901/6/13 6:59,964.3775887
1901/6/13 7:59,964.0247043
1901/6/13 8:59,960.7634559
1901/6/13 9:59,960.9269858
1901/6/13 10:59,952.5316555
1901/6/13 11:59,955.3610197
1901/6/13 12:59,946.2822522
1901/6/13 13:59,945.6723274
1901/6/13 14:59,942.8702313
1901/6/13 15:59,949.1293309
1901/6/13 16:59,955.096584
1901/6/13 17:59,966.3781055
1901/6/13 18:59,971.8399592
1901/6/13 19:59,975.6711445
1901/6/13 20:59,976.5975397
1901/6/13 21:59,980.6859854
1901/6/13 22:59,977.8682754
1901/6/13 23:59,978.4173864
1901/6/14 0:59,974.5824081
1901/6/14 1:59,979.3821734
1901/6/14 2:59,974.7069512
1901/6/14 3:59,975.3743334
1901/6/14 4:59,970.9509898
1901/6/14 5:59,975.1413047
1901/6/14 6:59,971.30783
1901/6/14 7:59,972.7735898
1901/6/14 8:59,969.2139001
1901/6/14 9:59,974.1764581
1901/6/14 10:59,971.4765489
1901/6/14 11:59,971.4740858
1901/6/14 12:59,969.6075979
1901/6/14 13:59,972.7966832
1901/6/14 14:59,968.9449861
1901/6/14 15:59,970.4678022
1901/6/14 16:59,970.1170431
1901/6/14 17:59,971.7895909
1901/6/14 18:59,970.350085
1901/6/14 19:59,973.1647195
1901/6/14 20:59,967.8563099
1901/6/14 21:59,974.7200775
1901/6/14 22:59,975.8858606
1901/6/14 23:59,980.939129
1901/6/15 0:59,978.8465205
1901/6/15 1:59,979.7518508
1901/6/15 2:59,972.8011755
1901/6/15 3:59,973.8481165
1901/6/15 4:59,968.653633
1901/6/15 5:59,972.2482376
1901/6/15 6:59,965.9480177
1901/6/15 7:59,972.5762557
1901/6/15 8:59,964.3064392
1901/6/15 9:59,973.6773804
1901/6/15 10:59,952.3084869
1901/6/15 11:59,955.9391629
1901/6/15 12:59,1001.888394
1901/6/15 13:59,1097.174875
1901/6/15 14:59,1019.529366
1901/6/15 15:59,935.4904007
1901/6/15 16:59,969.7061079
1901/6/15 17:59,957.426637
1901/6/15 18:59,968.0731813
1901/6/15 19:59,962.4363844
1901/6/15 20:59,968.602643
1901/6/15 21:59,963.0660801
1901/6/15 22:59,967.9152363
1901/6/15 23:59,962.790298
1901/6/16 0:59,967.4305677
1901/6/16 1:59,966.9988709
1901/6/16 2:59,968.0277449
1901/6/16 3:59,965.85984
1901/6/16 4:59,967.5304097
1901/6/16 5:59,965.7369316
1901/6/16 6:59,966.7521168
1901/6/16 7:59,963.7257716
1901/6/16 8:59,962.9956527
1901/6/16 9:59,956.667004
1901/6/16 10:59,953.823513
1901/6/16 11:59,947.0294103
1901/6/16 12:59,943.9134036
1901/6/16 13:59,940.0612792
1901/6/16 14:59,941.736782
1901/6/16 15:59,947.1136217
1901/6/16 16:59,958.4993055
1901/6/16 17:59,967.9290124
1901/6/16 18:59,977.6321623
1901/6/16 19:59,979.2263402
1901/6/16 20:59,980.8396201
1901/6/16 21:59,980.4392307
1901/6/16 22:59,981.9511182
1901/6/16 23:59,979.8469287
1901/6/17 0:59,980.6002349
1901/6/17 1:59,978.9940296
1901/6/17 2:59,978.1475744
1901/6/17 3:59,976.2367351
1901/6/17 4:59,976.4510636
1901/6/17 5:59,974.3575941
1901/6/17 6:59,976.5656138
1901/6/17 7:59,973.7607919
1901/6/17 8:59,975.3734686
1901/6/17 9:59,973.9137568
1901/6/17 10:59,975.0918544
1901/6/17 11:59,975.3257764
1901/6/17 12:59,975.4164958
1901/6/17 13:59,975.1449592
1901/6/17 14:59,976.8954146
1901/6/17 15:59,975.3820498
1901/6/17 16:59,977.030036
1901/6/17 17:59,975.818931
1901/6/17 18:59,975.4918773
1901/6/17 19:59,975.8517033
1901/6/17 20:59,979.2006134
1901/6/17 21:59,983.3936442
1901/6/17 22:59,984.3419386
1901/6/17 23:59,986.6444919
1901/6/18 0:59,989.7681261
1901/6/18 1:59,986.1522285
1901/6/18 2:59,984.9130467
1901/6/18 3:59,978.8781116
1901/6/18 4:59,980.5616682
1901/6/18 5:59,975.2173798
1901/6/18 6:59,978.5839183
1901/6/18 7:59,976.5451819
1901/6/18 8:59,977.369087
1901/6/18 9:59,952.1583387
1901/6/18 10:59,974.6513216
1901/6/18 11:59,1075.166143
1901/6/18 12:59,1169.69266
1901/6/18 13:59,1069.682385
1901/6/18 14:59,925.5074198
1901/6/18 15:59,950.9380993
1901/6/18 16:59,964.544654
1901/6/18 17:59,967.5425376
1901/6/18 18:59,963.863984
1901/6/18 19:59,966.4598012
1901/6/18 20:59,964.6212113
1901/6/18 21:59,966.4803459
1901/6/18 22:59,965.0979633
1901/6/18 23:59,969.8064096
1901/6/19 0:59,967.4995438
1901/6/19 1:59,969.1369591
1901/6/19 2:59,966.6483881
1901/6/19 3:59,967.339642
1901/6/19 4:59,964.1194495
1901/6/19 5:59,962.9570042
1901/6/19 6:59,957.8016134
1901/6/19 7:59,955.8237638
1901/6/19 8:59,949.1743462
1901/6/19 9:59,945.6990978
1901/6/19 10:59,940.3153369
1901/6/19 11:59,940.4874768
1901/6/19 12:59,937.0492124
1901/6/19 13:59,938.819453
1901/6/19 14:59,942.8788737
1901/6/19 15:59,955.4224412
1901/6/19 16:59,968.3739387
1901/6/19 17:59,977.636371
1901/6/19 18:59,981.5012251
1901/6/19 19:59,984.4756284
1901/6/19 20:59,982.7555528
1901/6/19 21:59,984.9342957
1901/6/19 22:59,983.2045434
1901/6/19 23:59,983.0716466
1901/6/20 0:59,980.4994057
1901/6/20 1:59,981.074091
1901/6/20 2:59,978.7603546
1901/6/20 3:59,979.3033996
1901/6/20 4:59,977.1393071
1901/6/20 5:59,976.7714222
1901/6/20 6:59,976.0608617
1901/6/20 7:59,976.3617419
1901/6/20 8:59,975.9338509
1901/6/20 9:59,976.5752841
1901/6/20 10:59,975.4548026
1901/6/20 11:59,977.0583143
1901/6/20 12:59,978.6294095
1901/6/20 13:59,978.6386246
1901/6/20 14:59,980.0014654
1901/6/20 15:59,979.9952685
1901/6/20 16:59,980.7056568
1901/6/20 17:59,979.1512298
1901/6/20 18:59,980.7524875
1901/6/20 19:59,984.3132564
1901/6/20 20:59,985.6688246
1901/6/20 21:59,987.3761772
1901/6/20 22:59,991.1267833
1901/6/20 23:59,992.1816461
1901/6/21 0:59,987.7017725
1901/6/21 1:59,983.2748931
1901/6/21 2:59,982.3359371
1901/6/21 3:59,981.1086724
1901/6/21 4:59,981.1929174
1901/6/21 5:59,979.6002453
1901/6/21 6:59,980.8522757
1901/6/21 7:59,966.5330592
1901/6/21 8:59,955.164608
1901/6/21 9:59,1024.137819
1901/6/21 10:59,1126.429586
1901/6/21 11:59,1141.522336
1901/6/21 12:59,975.9034051
1901/6/21 13:59,971.3676321
1901/6/21 14:59,972.1067118
1901/6/21 15:59,972.8842796
1901/6/21 16:59,971.5638445
1901/6/21 17:59,972.1682807
1901/6/21 18:59,970.6978796
1901/6/21 19:59,973.0448821
1901/6/21 20:59,971.1178614
1901/6/21 21:59,973.2276529
1901/6/21 22:59,972.5520896
1901/6/21 23:59,974.0193652
1901/6/22 0:59,971.1706934
1901/6/22 1:59,973.4063188
1901/6/22 2:59,969.3925507
1901/6/22 3:59,970.7136454
1901/6/22 4:59,964.1775083
1901/6/22 5:59,963.32659
1901/6/22 6:59,957.6098655
1901/6/22 7:59,955.9023956
1901/6/22 8:59,949.7815657
1901/6/22 9:59,949.1824044
1901/6/22 10:59,942.2315178
1901/6/22 11:59,947.4855343
1901/6/22 12:59,946.6661997
1901/6/22 13:59,956.8789772
1901/6/22 14:59,964.21152
1901/6/22 15:59,972.8543645
1901/6/22 16:59,977.8965544
1901/6/22 17:59,981.9779834
1901/6/22 18:59,982.1058749
1901/6/22 19:59,981.8546558
1901/6/22 20:59,980.6051885
1901/6/22 21:59,979.4922119
1901/6/22 22:59,979.7460739
1901/6/22 23:59,978.7543477
1901/6/23 0:59,975.9029613
1901/6/23 1:59,977.0264481
1901/6/23 2:59,976.3583324
1901/6/23 3:59,973.5420745
1901/6/23 4:59,972.7751941
1901/6/23 5:59,973.9983752
1901/6/23 6:59,971.1476949
1901/6/23 7:59,972.5790449
1901/6/23 8:59,971.6595939
1901/6/23 9:59,973.3084333
1901/6/23 10:59,972.246636
1901/6/23 11:59,971.673005
1901/6/23 12:59,971.6031731
1901/6/23 13:59,972.0628833
1901/6/23 14:59,973.0005755
1901/6/23 15:59,973.1044752
1901/6/23 16:59,969.7217108
1901/6/23 17:59,973.8745617
1901/6/23 18:59,974.4879506
1901/6/23 19:59,977.5434893
1901/6/23 20:59,975.3193229
1901/6/23 21:59,982.1536836
1901/6/23 22:59,977.9524062
1901/6/23 23:59,977.8929969
1901/6/24 0:59,971.2870898
1901/6/24 1:59,972.1620955
1901/6/24 2:59,966.4288502
1901/6/24 3:59,971.34178
1901/6/24 4:59,966.3176648
1901/6/24 5:59,970.585426
1901/6/24 6:59,961.0804788
1901/6/24 7:59,969.8217393
1901/6/24 8:59,944.9775542
1901/6/24 9:59,955.6206166
1901/6/24 10:59,1005.508084
1901/6/24 11:59,1092.01262
1901/6/24 12:59,1002.292772
1901/6/24 13:59,935.4984459
1901/6/24 14:59,967.4065001
1901/6/24 15:59,952.708628
1901/6/24 16:59,966.9537255
1901/6/24 17:59,956.5179186
1901/6/24 18:59,964.1668366
1901/6/24 19:59,957.397
1901/6/24 20:59,962.7987309
1901/6/24 21:59,960.0989771
1901/6/24 22:59,964.8206625
1901/6/24 23:59,960.2050406
1901/6/25 0:59,963.058467
1901/6/25 1:59,961.2565151
1901/6/25 2:59,964.0030388
1901/6/25 3:59,963.0360421
1901/6/25 4:59,959.4818083
1901/6/25 5:59,958.7159943
1901/6/25 6:59,958.7740534
1901/6/25 7:59,954.877765
1901/6/25 8:59,950.9107908
1901/6/25 9:59,947.0327815
1901/6/25 10:59,943.2457682
1901/6/25 11:59,941.2044764
1901/6/25 12:59,935.392279
1901/6/25 13:59,936.018046
1901/6/25 14:59,936.8122822
1901/6/25 15:59,943.3526056
1901/6/25 16:59,954.8131997
1901/6/25 17:59,958.2362043
1901/6/25 18:59,967.287865
1901/6/25 19:59,967.1700469
1901/6/25 20:59,971.5910024
1901/6/25 21:59,969.9816012
1901/6/25 22:59,970.7189304
1901/6/25 23:59,970.2592767
1901/6/26 0:59,970.145782
1901/6/26 1:59,966.6724754
1901/6/26 2:59,966.7103919
1901/6/26 3:59,965.8555318
1901/6/26 4:59,965.8473176
1901/6/26 5:59,965.6522862
1901/6/26 6:59,965.1116383
1901/6/26 7:59,965.2613477
1901/6/26 8:59,964.5941314
1901/6/26 9:59,964.8332864
1901/6/26 10:59,963.0859229
1901/6/26 11:59,964.8910405
1901/6/26 12:59,964.1689978
1901/6/26 13:59,963.9154607
1901/6/26 14:59,966.5884399
1901/6/26 15:59,965.3290876
1901/6/26 16:59,966.1331854
1901/6/26 17:59,964.0098657
1901/6/26 18:59,964.5165669
1901/6/26 19:59,964.767517
1901/6/26 20:59,966.498953
1901/6/26 21:59,967.6249479
1901/6/26 22:59,972.1634295
1901/6/26 23:59,972.1180917
1901/6/27 0:59,975.2643293
1901/6/27 1:59,976.8012582
1901/6/27 2:59,973.9071197
1901/6/27 3:59,972.8888068
1901/6/27 4:59,968.1659972
1901/6/27 5:59,970.1007635
1901/6/27 6:59,968.8020243
1901/6/27 7:59,970.5987337
1901/6/27 8:59,968.8700952
1901/6/27 9:59,971.2136259
1901/6/27 10:59,970.7496514
